time,lead1
0.0,-0.37425758871848447
0.002000066668888963,0.22622291547273582
0.004000133337777926,0.032425781359574725
0.006000200006666888,0.3019469115446676
0.008000266675555852,0.12967930829528282
0.010000333344444815,-0.061099845726781635
0.012000400013333776,0.2985682194111342
0.01400046668222274,0.31620033520126645
0.016000533351111703,0.23428100606012667
0.018000600020000666,-0.005143521293614617
0.02000066668888963,0.04419151296368759
0.022000733357778593,0.17206335796883818
0.024000800026667553,0.22491678896422465
0.026000866695556516,0.4679466050606248
0.02800093336444548,0.1441440793912944
0.030001000033334443,0.5302215753673014
0.032001066702223406,0.14282229659538334
0.034001133371112366,0.21381098818018696
0.03600120004000133,0.30885468742123834
0.03800126670889029,0.4353300604285477
0.04000133337777926,0.6523819302095084
0.04200140004666822,0.5437110629160424
0.044001466715557186,0.5481368017442129
0.046001533384446146,0.7627358083949657
0.048001600053335106,0.8494734851323169
0.05000166672222407,0.6356161705216308
0.05200173339111303,0.6373706114615376
0.054001800060002,0.42505904569322656
0.05600186672889096,0.13604046918314744
0.058001933397779926,0.8440025990239203
0.060002000066668885,0.6391409964895353
0.06200206673555785,0.711345301068438
0.06400213340444681,0.9422722767490518
0.06600220007333578,0.38721988961940423
0.06800226674222473,0.686892387698737
0.0700023334111137,0.8318098358010364
0.07200240008000267,1.0281574961587063
0.07400246674889163,0.559574844596255
0.07600253341778059,0.8410784972349462
0.07800260008666955,1.0822986470185088
0.08000266675555852,0.8930936681274232
0.08200273342444747,1.0840008806344446
0.08400280009333644,0.9788978751534612
0.0860028667622254,0.856438830316084
0.08800293343111437,0.9957688290689763
0.09000300010000332,1.2441006216739814
0.09200306676889229,0.5288625886297709
0.09400313343778126,0.7516065151994515
0.09600320010667021,0.9678234387414648
0.09800326677555918,1.4172867263133542
0.10000333344444814,1.01720590332767
0.10200340011333711,0.6880533995345857
0.10400346678222606,1.0117717121808165
0.10600353345111503,0.9282308108708407
0.108003600120004,1.4284255853244738
0.11000366678889296,1.0898603431417517
0.11200373345778192,1.0214816544219807
0.11400380012667088,1.3242721847802064
0.11600386679555985,1.0348459617316914
0.1180039334644488,1.2427998763101666
0.12000400013333777,1.0435025323899418
0.12200406680222674,1.4167058999903335
0.1240041334711157,0.83452163302871
0.12600420014000466,0.8951139460928141
0.12800426680889362,1.370211529324258
0.1300043334777826,0.8983012974560968
0.13200440014667156,1.2060211986912246
0.13400446681556052,1.1918355787777268
0.13600453348444946,0.8886129711048827
0.13800460015333843,1.1647570517519685
0.1400046668222274,1.2544584986505427
0.14200473349111636,1.4357576120850029
0.14400480016000533,1.4383359781888747
0.1460048668288943,1.0470415862896323
0.14800493349778326,1.6208417534321446
0.1500050001666722,1.0415058423092096
0.15200506683556117,1.4370955307165456
0.15400513350445014,1.0589424538056342
0.1560052001733391,1.4078615792704692
0.15800526684222807,1.4671466744351342
0.16000533351111704,1.4459060936706343
0.162005400180006,1.4304177700042338
0.16400546684889494,1.443633317172258
0.1660055335177839,1.1107191920488286
0.16800560018667288,1.350976706791549
0.17000566685556184,1.2118182195567477
0.1720057335244508,1.500340577279173
0.17400580019333978,0.9891962133796703
0.17600586686222874,1.5458332110670259
0.17800593353111768,1.6408596216369256
0.18000600020000665,1.545098828032174
0.18200606686889562,1.6882880806005574
0.18400613353778458,1.219562224485571
0.18600620020667355,1.673471546512104
0.18800626687556252,1.598723088566759
0.19000633354445148,1.7001576546709498
0.19200640021334042,1.8854359046680924
0.1940064668822294,1.4901727938722251
0.19600653355111836,1.5998473161175233
0.19800660022000732,1.7307705668317248
0.2000066668888963,1.768586630406126
0.20200673355778526,1.1942147067966253
0.20400680022667422,1.5254905786840003
0.2060068668955632,1.8056258490686758
0.20800693356445213,1.155044208384099
0.2100070002333411,1.6558464205011818
0.21200706690223006,1.5197681962565037
0.21400713357111903,1.8694654037396898
0.216007200240008,1.2585161774677887
0.21800726690889696,1.5879171492675754
0.22000733357778593,1.3847482119001018
0.22200740024667487,1.3115483527726945
0.22400746691556384,1.304968482662601
0.2260075335844528,1.4263940268017758
0.22800760025334177,1.1820149785126297
0.23000766692223074,1.008041265281619
0.2320077335911197,1.4988904163270103
0.23400780026000867,1.182696661068542
0.2360078669288976,1.7419163056241227
0.23800793359778658,1.138190982803399
0.24000800026667554,1.5528495092161247
0.2420080669355645,1.1346065645818901
0.24400813360445348,1.2469874330003818
0.24600820027334244,1.3092842756720477
0.2480082669422314,1.471746149600953
0.25000833361112035,1.1922365784510287
0.2520084002800093,1.235435320611456
0.2540084669488983,1.7318491275766412
0.25600853361778725,1.4350699307760109
0.2580086002866762,1.292552927681567
0.2600086669555652,1.5805597607228739
0.26200873362445415,1.387393070008353
0.2640088002933431,1.8032820092848107
0.2660088669622321,1.165989440838058
0.26800893363112105,1.054018630207372
0.27000900030001,1.2484286781918774
0.2720090669688989,1.5788380104280277
0.2740091336377879,1.39111250267007
0.27600920030667686,1.6598634938258334
0.2780092669755658,1.5871918673644214
0.2800093336444548,1.1792928950470456
0.28200940031334376,1.3383326743939257
0.28400946698223273,0.7986683402001584
0.2860095336511217,1.1167790589983753
0.28800960032001066,1.0946260471427922
0.29000966698889963,1.6102207261048784
0.2920097336577886,1.1998002454223984
0.29400980032667756,1.2740574921903467
0.29600986699556653,1.30309490499919
0.2980099336644555,0.9896312417691201
0.3000100003333444,1.0864280761196778
0.3020100670022334,0.9347502209698499
0.30401013367112234,1.0809426952110772
0.3060102003400113,1.6295872821223734
0.3080102670089003,0.8188564672145666
0.31001033367778924,1.0977094806037848
0.3120104003466782,1.0697499528428993
0.3140104670155672,0.637101256741534
0.31601053368445614,1.3376537779203632
0.3180106003533451,1.3044045837872167
0.3200106670222341,1.0905958251199719
0.32201073369112304,1.1948148940620382
0.324010800360012,0.704587117667001
0.326010867028901,1.2248151434021164
0.3280109336977899,1.047009247333449
0.33001100036667885,1.0861259912411856
0.3320110670355678,1.2618716697772856
0.3340111337044568,1.1698327899400605
0.33601120037334575,0.8455683279032925
0.3380112670422347,0.839345108615033
0.3400113337111237,0.7566289182493547
0.34201140038001265,0.8516842805561703
0.3440114670489016,0.5078912204080075
0.3460115337177906,1.0848147421502912
0.34801160038667955,0.6967650785592817
0.3500116670555685,0.47019243412509487
0.3520117337244575,0.6837716948789939
0.35401180039334645,0.8397091642343024
0.35601186706223537,0.5376686316456442
0.35801193373112433,0.2486022968773678
0.3600120004000133,0.7145484912038639
0.36201206706890227,0.6601410717748629
0.36401213373779123,1.0868026023044894
0.3660122004066802,0.595422447022729
0.36801226707556917,0.4646110486823283
0.37001233374445813,0.32583017607755493
0.3720124004133471,0.32253894427015717
0.37401246708223607,0.5076500664962961
0.37601253375112503,0.37310664082509626
0.378012600420014,0.6854170988425858
0.38001266708890297,0.07051875097165972
0.38201273375779193,0.07984008322896802
0.38401280042668084,0.32260856892557244
0.3860128670955698,0.3295431926842872
0.3880129337644588,0.46078472628723344
0.39001300043334775,0.1720711465870333
0.3920130671022367,0.43738647751268656
0.3940131337711257,0.40313600874435523
0.39601320044001465,0.16774919462098214
0.3980132671089036,0.4231521141318144
0.4000133337777926,0.17262260689834805
0.40201340044668155,0.2541871369410149
0.4040134671155705,0.5363738165041012
0.4060135337844595,-0.07786088643863028
0.40801360045334845,0.1384706540411116
0.4100136671222374,-0.019163626719031088
0.4120137337911264,0.08039025186595085
0.4140138004600153,-0.07701617732900302
0.41601386712890426,0.1142775885416485
0.4180139337977932,-0.20372018910247064
0.4200140004666822,0.045380066300920216
0.42201406713557116,-0.1367408294179591
0.4240141338044601,0.2977032645323179
0.4260142004733491,-0.4804863331375595
0.42801426714223806,-0.3006581716475112
0.430014333811127,-0.2130830051665182
0.432014400480016,-0.06298916142352243
0.43401446714890496,-0.1495505441465234
0.4360145338177939,0.12634062505084492
0.4380146004866829,-0.37534411448023386
0.44001466715557186,-0.13649059050262863
0.44201473382446077,0.01925424578931001
0.44401480049334974,-0.4413885692350806
0.4460148671622387,-0.10044972540790809
0.44801493383112767,-0.10277148329976715
0.45001500050001664,-0.6070187459693288
0.4520150671689056,-0.4830893209636953
0.45401513383779457,-0.728561260297732
0.45601520050668354,-0.4267434994598574
0.4580152671755725,-0.5499131198886807
0.46001533384446147,-0.3692398460167363
0.46201540051335044,-0.20431199651078064
0.4640154671822394,-0.687584420699937
0.46601553385112837,-0.7125606819797609
0.46801560052001734,-0.6568332254348684
0.47001566718890625,-0.7309877746559288
0.4720157338577952,-0.444595117565862
0.4740158005266842,-0.6801570539959318
0.47601586719557315,-0.6702965094962033
0.4780159338644621,-0.467986107524784
0.4800160005333511,-0.7815663500147247
0.48201606720224005,-0.6413015270538212
0.484016133871129,-0.5478778805723467
0.486016200540018,-0.45095315080179155
0.48801626720890695,-0.7969798012075683
0.4900163338777959,-1.0230638397141676
0.4920164005466849,-0.8988014310681419
0.49401646721557385,-0.7488533340345903
0.4960165338844628,-0.6992775683367143
0.49801660055335173,-0.9327472451212342
0.5000166672222407,-0.8878926031589223
0.5020167338911297,-1.1668281352837204
0.5040168005600186,-0.6917318975815228
0.5060168672289076,-0.8516760107540264
0.5080169338977966,-0.9148382625856366
0.5100170005666855,-1.2697089961011456
0.5120170672355745,-1.4272957092169556
0.5140171339044635,-1.4524343777141098
0.5160172005733524,-0.8521154036966886
0.5180172672422414,-1.1244750501287615
0.5200173339111304,-0.9692026641574375
0.5220174005800193,-1.0322728868085274
0.5240174672489083,-1.4218340914149439
0.5260175339177973,-0.8968034626894043
0.5280176005866862,-1.0374722102259142
0.5300176672555752,-1.1275234073284919
0.5320177339244642,-1.2018627166814229
0.5340178005933531,-1.2266221431559168
0.5360178672622421,-1.058053434008922
0.5380179339311311,-1.3358663516377565
0.54001800060002,-1.0436290705605575
0.5420180672689089,-1.061005409508078
0.5440181339377979,-1.2532714711931976
0.5460182006066868,-1.1565529644586892
0.5480182672755758,-1.278506341948982
0.5500183339444648,-1.4170491306624977
0.5520184006133537,-1.2319374608759128
0.5540184672822427,-1.241543253155346
0.5560185339511317,-1.4046029391791877
0.5580186006200206,-1.386422664600963
0.5600186672889096,-1.682553477909897
0.5620187339577986,-1.3176941187643672
0.5640188006266875,-1.1696491093529946
0.5660188672955765,-1.2616229781099533
0.5680189339644655,-1.3477184590323736
0.5700190006333544,-1.251967211951135
0.5720190673022434,-1.496325729806382
0.5740191339711324,-0.9593053141917361
0.5760192006400213,-1.5790885174428775
0.5780192673089103,-1.4327642682695618
0.5800193339777993,-1.232599126552985
0.5820194006466882,-1.4579087604388339
0.5840194673155772,-1.5637010642469016
0.5860195339844662,-1.4627162501440885
0.5880196006533551,-1.194352596733744
0.5900196673222441,-1.5739147946633099
0.5920197339911331,-1.3919539376392696
0.594019800660022,-1.6637404091496746
0.596019867328911,-1.2650536765221103
0.5980199339977998,-1.3124492248050177
0.6000200006666888,-1.329176669538595
0.6020200673355778,-1.8576601971662015
0.6040201340044667,-1.2844581841237799
0.6060202006733557,-1.3873543389337029
0.6080202673422447,-1.162241809555202
0.6100203340111336,-1.349694979088433
0.6120204006800226,-1.2560067418321206
0.6140204673489116,-1.6221594207932863
0.6160205340178005,-1.1298230006835985
0.6180206006866895,-1.417819704652548
0.6200206673555785,-1.5122941891519508
0.6220207340244674,-1.3118599028285072
0.6240208006933564,-1.669559578891351
0.6260208673622454,-1.1554746633902806
0.6280209340311343,-1.4264891291025399
0.6300210007000233,-1.0183096089727723
0.6320210673689123,-1.297446960602858
0.6340211340378012,-1.517172407025808
0.6360212007066902,-1.2325962638705388
0.6380212673755792,-1.792417950837537
0.6400213340444681,-1.2733676286167368
0.6420214007133571,-1.0959466797368684
0.6440214673822461,-1.73043599183635
0.646021534051135,-1.5656372257726912
0.648021600720024,-1.340853749041404
0.650021667388913,-1.580121924156448
0.652021734057802,-1.5581159130430162
0.6540218007266909,-1.1134188707116683
0.6560218673955798,-1.3238838333977718
0.6580219340644687,-1.4197075032922766
0.6600220007333577,-1.7606853854029578
0.6620220674022467,-1.3390011600280638
0.6640221340711356,-1.5089275484913662
0.6660222007400246,-1.3087145481106595
0.6680222674089136,-1.390451317110447
0.6700223340778025,-1.40897893878899
0.6720224007466915,-1.2815801387873376
0.6740224674155805,-1.0725157829188974
0.6760225340844694,-1.3602142326022824
0.6780226007533584,-1.268095985465928
0.6800226674222474,-1.3012359899005497
0.6820227340911363,-1.031326753878221
0.6840228007600253,-1.3035615215153913
0.6860228674289143,-1.1847658839400892
0.6880229340978032,-1.4648244966474295
0.6900230007666922,-1.6009341960022325
0.6920230674355812,-0.8485700543252599
0.6940231341044701,-0.9959687882889026
0.6960232007733591,-1.3705259749809926
0.6980232674422481,-1.2860056916671976
0.700023334111137,-1.3466664413066025
0.702023400780026,-1.5267636600178527
0.704023467448915,-1.3320165779792603
0.7060235341178039,-1.1198480840129736
0.7080236007866929,-1.1917930631948856
0.7100236674555819,-1.0826513674018234
0.7120237341244707,-0.7272387437185619
0.7140238007933597,-1.4170525003934022
0.7160238674622487,-1.300671388145617
0.7180239341311376,-1.3118331790445197
0.7200240008000266,-1.5362091484702283
0.7220240674689156,-1.294092833413547
0.7240241341378045,-1.2338832559715442
0.7260242008066935,-0.7652351640033817
0.7280242674755825,-0.8555400771634342
0.7300243341444714,-0.7865440084725004
0.7320244008133604,-0.7404548280142766
0.7340244674822494,-1.2267572810748306
0.7360245341511383,-0.6092714210708872
0.7380246008200273,-1.1673458692964647
0.7400246674889163,-1.288126118975676
0.7420247341578052,-0.9193894275399076
0.7440248008266942,-1.004784754890597
0.7460248674955832,-0.9582618484269803
0.7480249341644721,-0.9199537949474196
0.7500250008333611,-0.9868098642766315
0.7520250675022501,-0.5353287502038101
0.754025134171139,-0.7592988633516451
0.756025200840028,-0.8719743396783579
0.758025267508917,-1.0132485142715388
0.7600253341778059,-0.6121402102627883
0.7620254008466949,-0.8940841821129107
0.7640254675155839,-0.6639195182441878
0.7660255341844728,-0.8168326824284688
0.7680256008533617,-1.1507942012512422
0.7700256675222507,-0.7142844681618912
0.7720257341911396,-0.7523074314150491
0.7740258008600286,-0.4021805162045603
0.7760258675289176,-0.6520836159271053
0.7780259341978065,-0.7115633159734902
0.7800260008666955,-0.27330103504906084
0.7820260675355845,-0.6692757566475561
0.7840261342044734,-0.7749369529492653
0.7860262008733624,-0.7437497510298253
0.7880262675422514,-0.30830050267877296
0.7900263342111403,-0.550396415220267
0.7920264008800293,-0.27632214034538205
0.7940264675489183,-0.3421367717159474
0.7960265342178072,-0.5319130957373314
0.7980266008866962,-0.31717656932750143
0.8000266675555852,-0.7249983659747021
0.8020267342244741,-0.4633460126965761
0.8040268008933631,-0.14727044492609698
0.8060268675622521,-0.6283300628178432
0.808026934231141,-0.33951212253026
0.81002700090003,0.007107898522174805
0.812027067568919,-0.5481643033507597
0.8140271342378079,-0.27073178982887314
0.8160272009066969,0.20745915638038082
0.8180272675755859,0.01584076535172213
0.8200273342444748,-0.23906148040305342
0.8220274009133638,-0.06411408495522715
0.8240274675822528,-0.1754247449912723
0.8260275342511416,-0.26359640293356346
0.8280276009200306,-0.13068723520470554
0.8300276675889195,0.15193966022648345
0.8320277342578085,0.09085650311897425
0.8340278009266975,0.20471143530513103
0.8360278675955864,0.1879198597797952
0.8380279342644754,0.33821734571941886
0.8400280009333644,-0.3940117662290794
0.8420280676022533,0.05377684223513706
0.8440281342711423,0.1548699287993478
0.8460282009400313,-0.017553024587302346
0.8480282676089202,-0.23230837018328795
0.8500283342778092,0.4113084269195273
0.8520284009466982,-0.1827217631023812
0.8540284676155872,0.014721053868774647
0.8560285342844761,0.025115440804636763
0.8580286009533651,0.3766148189738022
0.860028667622254,0.00027594996187607634
0.862028734291143,0.5031825773423444
0.864028800960032,0.2144293705214961
0.866028867628921,0.39902643237733937
0.8680289342978099,0.4309690422652487
0.8700290009666989,0.5274893252062418
0.8720290676355879,0.550669198675421
0.8740291343044768,0.9976392760344499
0.8760292009733658,0.5223124411082476
0.8780292676422548,0.29020629478607024
0.8800293343111437,0.6449428972993128
0.8820294009800326,0.6472519075764539
0.8840294676489215,0.31892443668798276
0.8860295343178105,0.3493925844090395
0.8880296009866995,0.4267144905851832
0.8900296676555884,0.5641529693468579
0.8920297343244774,0.8425054733003519
0.8940298009933664,1.0999392268045862
0.8960298676622553,0.32762290258756077
0.8980299343311443,0.6752967354589732
0.9000300010000333,0.8618104171973868
0.9020300676689222,0.6349677904728471
0.9040301343378112,0.560348283241724
0.9060302010067002,0.44768268393602834
0.9080302676755891,0.8837178770701296
0.9100303343444781,0.8449464384438113
0.9120304010133671,0.9449776757053028
0.914030467682256,0.532615016535258
0.916030534351145,0.8529486317635012
0.918030601020034,1.0239314757850089
0.9200306676889229,0.8853512814674925
0.9220307343578119,1.2193195644174883
0.9240308010267009,0.8809343130942467
0.9260308676955898,0.8434581216256762
0.9280309343644788,1.1898915865249715
0.9300310010333678,1.177708304316671
0.9320310677022567,0.9378795901628226
0.9340311343711457,1.032369679124735
0.9360312010400347,1.1599682481653493
0.9380312677089236,1.1293417798770442
0.9400313343778125,0.941441282713835
0.9420314010467015,1.186150330751825
0.9440314677155904,1.0834265268429155
0.9460315343844794,1.0332843884674108
0.9480316010533684,0.9652726020520437
0.9500316677222573,1.104664136679947
0.9520317343911463,0.8545196616182313
0.9540318010600353,1.312732318544054
0.9560318677289242,0.8655502506814634
0.9580319343978132,1.5433163259313392
0.9600320010667022,1.1607032897593077
0.9620320677355911,1.2022545635814788
0.9640321344044801,1.129341345454265
0.9660322010733691,1.294402220053687
0.968032267742258,1.054816330497281
0.970032334411147,1.0245444711654943
0.972032401080036,1.0451412793382011
0.9740324677489249,1.2718586594392285
0.9760325344178139,1.2048916547631576
0.9780326010867029,1.6914571008898505
0.9800326677555918,1.4363402433981942
0.9820327344244808,1.0360706269950293
0.9840328010933698,1.4148744772359538
0.9860328677622587,1.3074968968842744
0.9880329344311477,1.6373549639216338
0.9900330011000367,1.871216486439655
0.9920330677689256,1.4030469192110666
0.9940331344378146,1.6355020404841323
0.9960332011067035,1.3571047225926214
0.9980332677755924,1.487920491519882
1.0000333344444814,1.1898909378756575
1.0020334011133705,1.429984540603401
1.0040334677822593,1.6206832724688287
1.0060335344511484,1.2300459320823183
1.0080336011200373,1.5012688550740771
1.0100336677889263,1.1853090432875033
1.0120337344578152,1.4992698229722738
1.0140338011267043,1.360186575066114
1.0160338677955931,1.6096861951531247
1.0180339344644822,0.8802290206728853
1.020034001133371,1.710779722553951
1.0220340678022601,1.2332032391956973
1.024034134471149,1.3136812591105524
1.0260342011400378,1.5338631660674604
1.028034267808927,1.594951654620633
1.0300343344778158,1.6229178532509523
1.0320344011467049,1.4084022923505382
1.0340344678155937,1.8012340436213863
1.0360345344844828,0.9311118829168282
1.0380346011533716,1.6845797209443625
1.0400346678222607,1.57619959727338
1.0420347344911496,1.495934790114936
1.0440348011600387,1.5905691114456069
1.0460348678289275,1.1899812436484787
1.0480349344978166,1.118745402904203
1.0500350011667055,1.539235242051325
1.0520350678355945,1.6347945421734065
1.0540351345044834,1.3729538845513285
1.0560352011733725,1.567927359907531
1.0580352678422613,1.7254890940440195
1.0600353345111504,1.570036019879079
1.0620354011800393,1.6078359716856578
1.0640354678489283,1.2073774076062231
1.0660355345178172,1.5087405040281656
1.0680356011867063,1.2026171499137799
1.0700356678555951,1.3855294675687144
1.0720357345244842,1.7410580430430314
1.074035801193373,1.461410790179711
1.0760358678622621,1.5498025008254903
1.078035934531151,1.7139206473593789
1.08003600120004,1.4557381639231568
1.082036067868929,1.4715293483403495
1.0840361345378178,1.503929102368193
1.0860362012067069,1.2613274931493612
1.0880362678755957,1.2830986054426678
1.0900363345444848,1.540587187539663
1.0920364012133736,1.4113968584674552
1.0940364678822627,1.1921192125182734
1.0960365345511516,1.0871507876117632
1.0980366012200407,1.7043966557239298
1.1000366678889295,1.3554545420646513
1.1020367345578186,1.5413528965559744
1.1040368012267074,1.2266153034501965
1.1060368678955965,1.5569505025522328
1.1080369345644854,1.1811190276596621
1.1100370012333745,1.4130162896342022
1.1120370679022633,1.0881304900662898
1.1140371345711524,1.1793386549714264
1.1160372012400412,1.345049926177416
1.1180372679089303,1.1618576650325934
1.1200373345778192,1.3293642589453567
1.1220374012467083,1.4644478916668051
1.124037467915597,1.1366530836338473
1.1260375345844862,1.223524668056404
1.128037601253375,0.7804384175719894
1.1300376679222641,0.8701792716761954
1.132037734591153,1.332451761601197
1.134037801260042,1.7309257283751607
1.136037867928931,0.9370548207285305
1.1380379345978198,1.4725218686154982
1.1400380012667088,1.553583391081361
1.1420380679355977,1.4769989584832652
1.1440381346044868,1.0956137504205403
1.1460382012733756,1.1849892308744576
1.1480382679422647,0.8015768347364546
1.1500383346111536,0.9909429649768579
1.1520384012800426,1.1334287321862155
1.1540384679489315,0.7491304848875375
1.1560385346178206,0.6893304679299386
1.1580386012867094,1.1772234884357244
1.1600386679555985,0.9874248299397113
1.1620387346244874,1.0510327232103536
1.1640388012933764,0.805197408198567
1.1660388679622653,1.3049777582437259
1.1680389346311544,0.9087153047051961
1.1700390013000432,0.9638975107750253
1.1720390679689323,1.0575983383602772
1.1740391346378212,0.5612073852341939
1.1760392013067102,0.7591275629005345
1.178039267975599,0.8331453874577072
1.1800393346444882,0.8973510544960045
1.182039401313377,0.776329867848065
1.1840394679822661,0.8200698497401374
1.186039534651155,0.6237603901254396
1.188039601320044,0.6083571901599109
1.190039667988933,0.9274570987833415
1.192039734657822,0.8501702454802035
1.1940398013267108,0.931255068384147
1.1960398679955997,0.7235666224026577
1.1980399346644888,0.4198989689283624
1.2000400013333776,0.2664564606143764
1.2020400680022667,0.15625722800550818
1.2040401346711556,0.6157348629349403
1.2060402013400446,0.5035871307780165
1.2080402680089335,0.4520533625912354
1.2100403346778226,0.5619999307986527
1.2120404013467114,0.4014893856304619
1.2140404680156005,0.2546461114175658
1.2160405346844894,0.33906120014973795
1.2180406013533784,0.47296473399099104
1.2200406680222673,0.25089545464238683
1.2220407346911564,0.36894598164609893
1.2240408013600452,0.26648832655763727
1.2260408680289343,0.19770551312501505
1.2280409346978232,0.45589345579763113
1.2300410013667122,0.7614427659139704
1.232041068035601,-0.26216242815478136
1.2340411347044902,0.18418379280300295
1.236041201373379,0.35014797283905924
1.238041268042268,0.4517448571439684
1.240041334711157,0.14788203066389338
1.242041401380046,0.2624554429749657
1.244041468048935,0.2957015335344687
1.246041534717824,-0.209548406388121
1.2480416013867128,-0.4355765855153827
1.250041668055602,-0.29147367779855754
1.2520417347244908,0.1874753222819925
1.2540418013933796,-0.2914496154468864
1.2560418680622687,-0.17480461595443883
1.2580419347311576,0.2862395329061981
1.2600420014000466,-0.04557350150171019
1.2620420680689355,-0.25258499869900786
1.2640421347378246,-0.02985297313417376
1.2660422014067134,-0.1786591517397601
1.2680422680756025,-0.216799241607208
1.2700423347444914,-0.31889429167747013
1.2720424014133804,-0.6024064183110331
1.2740424680822693,-0.09993333518396696
1.2760425347511584,0.06462624269862338
1.2780426014200472,-0.2584878796055845
1.2800426680889363,-0.27791041423963314
1.2820427347578252,-0.02949708129967421
1.2840428014267142,-0.4366284094679354
1.286042868095603,-0.19303091628344335
1.2880429347644922,-0.24473170964314428
1.290043001433381,-0.7654522584488421
1.29204306810227,-0.2630016300947969
1.294043134771159,-0.6444948021303286
1.296043201440048,-0.7497269831628982
1.2980432681089369,-0.4126743062310994
1.300043334777826,-0.7246496647549833
1.3020434014467148,-0.5676449125942239
1.304043468115604,-0.7537331231291124
1.3060435347844928,-0.7999014667761684
1.3080436014533818,-0.4242920387174912
1.3100436681222707,-0.7741463988601976
1.3120437347911595,-0.6534615121759831
1.3140438014600486,-0.8119125567136092
1.3160438681289375,-0.6028285289042544
1.3180439347978266,-0.5659696437226978
1.3200440014667154,-0.7023851956173093
1.3220440681356045,-0.9112187000814072
1.3240441348044933,-0.5398670017358917
1.3260442014733824,-0.8909525020506888
1.3280442681422713,-0.9265961537721562
1.3300443348111604,-0.525368148200658
1.3320444014800492,-0.6288642815977165
1.3340444681489383,-0.8450155189849525
1.3360445348178271,-0.7617524665186228
1.3380446014867162,-0.7326197421261967
1.340044668155605,-1.0298380514969534
1.3420447348244942,-0.5989664093046791
1.344044801493383,-0.9551763954637513
1.346044868162272,-0.8724392570507302
1.348044934831161,-1.0795734331369846
1.35004500150005,-1.1975767141600249
1.3520450681689389,-1.1612009509711627
1.354045134837828,-1.0032398957733941
1.3560452015067168,-0.9381056742564944
1.358045268175606,-0.8134496057932863
1.3600453348444947,-1.0166121451565124
1.3620454015133838,-1.3787595487110686
1.3640454681822727,-1.3315517650478628
1.3660455348511615,-1.6003308861499208
1.3680456015200506,-1.2842356171724336
1.3700456681889395,-1.3283978926705795
1.3720457348578285,-1.4200725010695443
1.3740458015267174,-1.24356248288505
1.3760458681956065,-1.1673841736896593
1.3780459348644953,-0.6735273952685014
1.3800460015333844,-1.2764552619710208
1.3820460682022733,-1.0914870350626755
1.3840461348711623,-1.3463660833822095
1.3860462015400512,-1.6889906941084027
1.3880462682089403,-1.2312489085118021
1.3900463348778291,-1.157325801641213
1.3920464015467182,-1.3076866212724714
1.394046468215607,-1.4983264394225797
1.3960465348844961,-1.5508942957511196
1.398046601553385,-1.3874618566313013
1.400046668222274,-1.4823966689286878
1.402046734891163,-1.5196999068347292
1.404046801560052,-1.3248553388497295
1.4060468682289409,-1.1000607360042494
1.40804693489783,-1.4420789245691288
1.4100470015667188,-1.1406640722990424
1.4120470682356079,-1.396753932082455
1.4140471349044967,-1.4218985686678185
1.4160472015733858,-1.6845301927087521
1.4180472682422747,-1.3502393644897275
1.4200473349111637,-0.809328322875743
1.4220474015800526,-1.6914967353087973
1.4240474682489415,-1.5595260650152882
1.4260475349178305,-1.037625883045431
1.4280476015867194,-1.607520759202916
1.4300476682556085,-1.3990888203017102
1.4320477349244973,-1.3893176876344222
1.4340478015933864,-1.3120981051495173
1.4360478682622753,-1.6268079321938664
1.4380479349311643,-1.9032718409972635
1.4400480016000532,-1.4697588005855384
1.4420480682689423,-1.4301398759018555
1.4440481349378311,-1.3213917308430045
1.4460482016067202,-1.2864220415789784
1.448048268275609,-1.2675316450080434
1.4500483349444981,-1.1063266165251529
1.452048401613387,-1.4943003408187363
1.454048468282276,-1.6870922346498558
1.456048534951165,-1.8466113601376228
1.458048601620054,-1.520430629720931
1.4600486682889429,-1.8984154914010238
1.462048734957832,-1.5607350986645285
1.4640488016267208,-1.9343360493124102
1.4660488682956099,-1.4773533259253635
1.4680489349644987,-1.5409680341988525
1.4700490016333878,-1.5819148887937675
1.4720490683022767,-1.5845092533793157
1.4740491349711657,-1.5314317015352235
1.4760492016400546,-1.5704484392260614
1.4780492683089437,-1.4785686174637334
1.4800493349778325,-1.4198170056356225
1.4820494016467214,-1.4358266482076756
1.4840494683156105,-1.620521780042739
1.4860495349844993,-1.5108319319158818
1.4880496016533884,-1.4205531733600074
1.4900496683222773,-1.393814842993325
1.4920497349911663,-1.2613121277482993
1.4940498016600552,-1.435382660738129
1.4960498683289443,-1.398039818520168
1.4980499349978331,-1.5022774117525521
1.5000500016667222,-1.2976767452158855
1.502050068335611,-1.4508497586180644
1.5040501350045001,-1.3572957346033931
1.506050201673389,-1.0829364545561941
1.508050268342278,-1.4597340414624438
1.510050335011167,-1.118678750106064
1.512050401680056,-1.2520312139564636
1.5140504683489449,-1.1251674573215957
1.516050535017834,-1.3083337169117253
1.5180506016867228,-1.327565854756443
1.5200506683556119,-1.0367819821758815
1.5220507350245007,-1.352921648407876
1.5240508016933898,-1.5272277108440726
1.5260508683622787,-1.4553900508404984
1.5280509350311677,-1.3413141452754782
1.5300510017000566,-1.5988975948404605
1.5320510683689457,-1.4107709351148259
1.5340511350378345,-1.220186431184872
1.5360512017067234,-1.2535213256435294
1.5380512683756125,-0.8877289076547293
1.5400513350445013,-1.1909758846050527
1.5420514017133904,-1.1747147293835787
1.5440514683822792,-1.3127224299502256
1.5460515350511683,-1.3403222171927351
1.5480516017200572,-0.9699868333631196
1.5500516683889463,-1.242915112782173
1.5520517350578351,-1.2824494593038187
1.5540518017267242,-1.3542665115304722
1.556051868395613,-1.0409825989052033
1.5580519350645021,-1.0842842884787327
1.560052001733391,-1.2362578050601258
1.56205206840228,-1.2058385095860296
1.564052135071169,-1.2664836211429185
1.566052201740058,-1.1574734058154699
1.5680522684089468,-0.9593053172573762
1.570052335077836,-0.9497093361515083
1.5720524017467248,-1.1003181978460737
1.5740524684156139,-0.9602802277540156
1.5760525350845027,-0.9449131812081502
1.5780526017533918,-0.8620952625902818
1.5800526684222806,-1.053187302059858
1.5820527350911697,-1.0188719119845238
1.5840528017600586,-0.8379045427195427
1.5860528684289477,-0.827086857812274
1.5880529350978365,-1.0979279428544357
1.5900530017667256,-0.8303698187086913
1.5920530684356144,-0.4882125068929661
1.5940531351045033,-1.1855383155504633
1.5960532017733924,-0.8157695545317757
1.5980532684422812,-0.747583376136479
1.6000533351111703,-0.8777713353259726
1.6020534017800592,-0.8628183510929546
1.6040534684489482,-0.7666329953253005
1.606053535117837,-0.7168083157938245
1.6080536017867262,-0.5360079680161114
1.610053668455615,-0.5454676968956488
1.6120537351245041,-0.7883950806642362
1.614053801793393,-0.7594189644676023
1.616053868462282,-0.6623840087179824
1.618053935131171,-0.3369045648469544
1.62005400180006,-0.41557648022793675
1.6220540684689488,-0.46378366710574087
1.624054135137838,-0.3031986632870738
1.6260542018067268,-0.16757931011104937
1.6280542684756159,-0.7268544431833004
1.6300543351445047,-0.6802936066384013
1.6320544018133938,-0.4323063318325186
1.6340544684822826,-0.41091254893322327
1.6360545351511717,0.07868797063447941
1.6380546018200606,-0.09261421009515489
1.6400546684889497,-0.31123094268006346
1.6420547351578385,-0.13221426839107958
1.6440548018267276,-0.22371050156022182
1.6460548684956164,-0.19810315945133322
1.6480549351645055,-0.28264043839569786
1.6500550018333944,-0.3410904554910771
1.6520550685022832,0.011717179023893909
1.6540551351711723,0.08053946705578316
1.6560552018400612,-0.2780416132843414
1.6580552685089502,-0.2668414571362184
1.660055335177839,0.0770450190460041
1.6620554018467282,0.1598798553744722
1.664055468515617,0.4217535441977037
1.666055535184506,-0.23568139303164154
1.668055601853395,-0.19334844616321373
1.670055668522284,0.057656609700633576
1.672055735191173,0.30693483661763965
1.674055801860062,-0.03533904378609645
1.6760558685289508,0.14620124655050915
1.67805593519784,0.19943100146224169
1.6800560018667288,0.1733032683164923
1.6820560685356178,0.10746501060978784
1.6840561352045067,0.39397047474699187
1.6860562018733958,0.004721128951117148
1.6880562685422846,0.5317209624162547
1.6900563352111737,-0.000418597065625248
1.6920564018800626,0.20737786537679542
1.6940564685489516,0.5132112591519852
1.6960565352178405,0.38400348871297973
1.6980566018867296,-0.030734045979083136
1.7000566685556184,0.43864953737413787
1.7020567352245075,0.42385742273986143
1.7040568018933964,0.2849665167439114
1.7060568685622854,0.3740656303262829
1.7080569352311743,0.5784429717310102
1.7100570019000632,0.9461379659779446
1.7120570685689522,0.3046986205630337
1.714057135237841,0.2587526944221193
1.7160572019067302,0.9908835576585955
1.718057268575619,0.624352195857782
1.720057335244508,0.7256008987647586
1.722057401913397,0.993376182912783
1.724057468582286,0.7928486895333757
1.726057535251175,0.32761133108578744
1.728057601920064,0.9681533824007817
1.7300576685889528,0.7360814384941405
1.732057735257842,0.8411517942021359
1.7340578019267308,0.8176223131687896
1.7360578685956198,0.7539700039916729
1.7380579352645087,0.6879428603837187
1.7400580019333978,0.7603860746359407
1.7420580686022866,0.628521745829057
1.7440581352711757,1.037038618789327
1.7460582019400646,0.8562548452427828
1.7480582686089536,0.6308908273070074
1.7500583352778425,0.8325987192913041
1.7520584019467316,0.8092176049644139
1.7540584686156204,0.45677467236001634
1.7560585352845095,0.7800665646855125
1.7580586019533984,0.8491202413925064
1.7600586686222874,0.713667085253783
1.7620587352911763,0.9658330840196772
1.7640588019600651,1.4887215964075238
1.7660588686289542,1.1643158049517996
1.768058935297843,0.9621314027344459
1.7700590019667322,0.9915960420439962
1.772059068635621,0.920518475455656
1.77405913530451,1.189080176330652
1.776059201973399,0.8629947625682837
1.778059268642288,0.8029901978571099
1.7800593353111769,0.8760033810733787
1.782059401980066,1.4420462647181522
1.7840594686489548,1.2215621810948931
1.786059535317844,1.237394216955132
1.7880596019867327,1.0844734335393384
1.7900596686556218,1.1859242250262882
1.7920597353245107,1.3428285707718217
1.7940598019933998,0.8982605489011724
1.7960598686622886,1.6482602089812912
1.7980599353311777,1.166075064980652
1.8000600020000666,1.2162378190619652
1.8020600686689556,0.9949732992433966
1.8040601353378445,1.4123195465623126
1.8060602020067336,1.7402936738358372
1.8080602686756224,1.2031113334132308
1.8100603353445115,1.2973236705490439
1.8120604020134004,1.653138098857928
1.8140604686822894,1.2164894623635798
1.8160605353511783,1.4663173155292202
1.8180606020200674,1.3646038992314657
1.8200606686889562,1.4562033163136594
1.822060735357845,1.5789756767528782
1.8240608020267342,1.4577347685327813
1.826060868695623,1.5319076321744012
1.828060935364512,1.5355889545505101
1.830061002033401,1.4091686844406823
1.83206106870229,1.1225175888331043
1.8340611353711789,1.1392582569581604
1.836061202040068,1.2992171212793477
1.8380612687089568,1.8365202290345015
1.8400613353778459,1.7545581884583525
1.8420614020467347,1.1467340691899452
1.8440614687156238,1.5930584911268182
1.8460615353845127,1.5970287542705517
1.8480616020534018,1.6002161629497462
1.8500616687222906,1.2771891028656737
1.8520617353911797,1.7822197968430349
1.8540618020600685,1.5972085428268368
1.8560618687289576,1.169145798017527
1.8580619353978465,1.137498344584631
1.8600620020667356,1.415815993977833
1.8620620687356244,1.6292978267879898
1.8640621354045135,1.745261638489083
1.8660622020734023,1.988671331879441
1.8680622687422914,1.6979909453167616
1.8700623354111803,1.3198513005644608
1.8720624020800694,1.5105899842713841
1.8740624687489582,1.8721046417740226
1.8760625354178473,1.4451902060017108
1.8780626020867361,1.4556706812923286
1.880062668755625,1.1840818439306418
1.882062735424514,1.3344611271890574
1.884062802093403,1.4754523055659226
1.886062868762292,1.621640960181016
1.8880629354311809,1.5179034843301047
1.89006300210007,1.5582940360962727
1.8920630687689588,1.3919322176226518
1.8940631354378479,1.3146827467163544
1.8960632021067367,1.9448323723644236
1.8980632687756258,1.2635672099216646
1.9000633354445147,1.7366978206126167
1.9020634021134037,1.9286002123710702
1.9040634687822926,1.627257394732852
1.9060635354511817,1.5361489583596322
1.9080636021200705,1.8024668525951855
1.9100636687889596,1.184071688972354
1.9120637354578485,1.2858073017385498
1.9140638021267375,1.569602167853159
1.9160638687956264,1.601909470746743
1.9180639354645155,1.486566994745677
1.9200640021334043,1.3847529039253519
1.9220640688022934,1.649658252493979
1.9240641354711823,1.557285911489553
1.9260642021400713,1.2134910771494343
1.9280642688089602,1.1241368712697117
1.9300643354778493,1.3565249544298756
1.9320644021467381,1.2122740513054193
1.9340644688156272,1.3626761013401083
1.936064535484516,1.4015200936104115
1.938064602153405,1.572814465037301
1.940064668822294,1.3416634055485614
1.9420647354911829,1.3747214622969646
1.944064802160072,1.457426649911757
1.9460648688289608,1.231372791708325
1.9480649354978499,1.5238130851660514
1.9500650021667387,1.1839611076509708
1.9520650688356278,1.0926405621313573
1.9540651355045167,0.8654372074820778
1.9560652021734057,1.2306828979275966
1.9580652688422946,1.0897589026629082
1.9600653355111837,1.430562829436361
1.9620654021800725,0.9061408413717327
1.9640654688489616,1.0408252078378681
1.9660655355178505,0.8329508882448713
1.9680656021867395,1.5471872487634284
1.9700656688556284,1.1003491156040903
1.9720657355245175,0.9908597939845767
1.9740658021934063,1.223558100105668
1.9760658688622954,1.2896408728638311
1.9780659355311843,0.9617013884673432
1.9800660022000733,1.2615634674270748
1.9820660688689622,0.8103622637586898
1.9840661355378513,0.7867747091183775
1.9860662022067401,0.7728623392090312
1.9880662688756292,1.0816948771776123
1.990066335544518,1.062505584922996
1.992066402213407,1.2260463323409423
1.994066468882296,0.6748184822619615
1.9960665355511849,0.7688137063419053
1.998066602220074,0.8835422621852079
2.000066668888963,0.8360709601851647
2.0020667355578516,0.6297812623184953
2.004066802226741,0.7071422738544197
2.00606686889563,1.2448016022382404
2.0080669355645187,0.8082143709818823
2.0100670022334075,0.4644749021852266
2.012067068902297,0.5250018536417074
2.0140671355711857,0.7771311369493472
2.0160672022400745,0.7466498797448529
2.0180672689089634,0.8419449128860177
2.0200673355778527,0.7984151054958133
2.0220674022467415,0.7648359402474231
2.0240674689156304,0.8799187469929965
2.0260675355845192,0.7248858444579872
2.0280676022534085,0.8584125284754596
2.0300676689222974,0.7182495766327327
2.0320677355911863,0.15381611401518303
2.034067802260075,0.6647354165886353
2.0360678689289644,0.620246996290837
2.0380679355978533,0.5589539803078976
2.040068002266742,0.5669550979029332
2.042068068935631,0.06130306173004196
2.0440681356045203,0.27258451589715366
2.046068202273409,-0.10735643382904891
2.048068268942298,0.48059649461765275
2.050068335611187,0.20582755548664924
2.0520684022800757,0.6078028628892072
2.054068468948965,0.34399454807511204
2.056068535617854,0.5528839756893713
2.0580686022867427,0.32220776275219903
2.0600686689556316,0.12409926325235318
2.062068735624521,0.28831990685780984
2.0640688022934097,-0.20444489770119956
2.0660688689622986,0.32254703130392604
2.0680689356311874,-0.08762677720329351
2.0700690023000767,0.014298607828456822
2.0720690689689656,0.023355432642719207
2.0740691356378544,0.13517397231364073
2.0760692023067433,0.04531151355006508
2.0780692689756326,0.36991184174526626
2.0800693356445215,0.197332569780956
2.0820694023134103,-0.01202603372325347
2.084069468982299,-0.01635490191020239
2.0860695356511885,-0.04934580061655107
2.0880696023200773,-0.27981630851027905
2.090069668988966,-0.07137167962271347
2.092069735657855,0.2502425065787769
2.0940698023267443,-0.03547447214357244
2.096069868995633,-0.15790311532149184
2.098069935664522,0.08129794873126911
2.100070002333411,-0.41356514983411263
2.1020700690023,-0.45406420225832955
2.104070135671189,-0.13171779667640815
2.106070202340078,-0.16409149257384875
2.1080702690089668,-0.48396774209168825
2.1100703356778556,-0.2928062657551539
2.112070402346745,-0.6887694101909982
2.114070469015634,-0.5092997462226951
2.1160705356845226,0.05364568771846262
2.1180706023534115,-0.3583389442656053
2.120070669022301,-0.5788485124163507
2.1220707356911896,-0.7245192011038141
2.1240708023600785,-0.1698903218218799
2.1260708690289674,-0.2706274975275838
2.1280709356978567,-0.7352558268290966
2.1300710023667455,-0.7033851786366151
2.1320710690356344,-0.5699277634612162
2.1340711357045232,-0.9323642289775234
2.1360712023734125,-0.5195648244727233
2.1380712690423014,-0.7298502211700005
2.1400713357111902,-0.49542657497452736
2.142071402380079,-0.6905677304972965
2.1440714690489684,-0.5910437233455067
2.1460715357178572,-0.7526385717758478
2.148071602386746,-0.8174551296427859
2.150071669055635,-0.7267682167639968
2.1520717357245243,-0.7581949970712553
2.154071802393413,-0.7861228700704556
2.156071869062302,-0.7411477529075372
2.158071935731191,-0.9251194025558724
2.16007200240008,-0.7748712596551416
2.162072069068969,-0.8759049709022844
2.164072135737858,-0.7966044962768023
2.1660722024067467,-0.8201002821365915
2.1680722690756355,-0.7925017665821579
2.170072335744525,-0.747028327496274
2.1720724024134137,-1.245299118453925
2.1740724690823026,-0.9083141154231025
2.1760725357511914,-1.070169214269125
2.1780726024200807,-1.223701715378542
2.1800726690889696,-1.2449854716447188
2.1820727357578584,-0.9314489861930652
2.1840728024267473,-1.0041018151186833
2.1860728690956366,-1.1675096786010168
2.1880729357645254,-1.0427482834729955
2.1900730024334143,-1.487078553972415
2.192073069102303,-1.505351682225637
2.1940731357711925,-0.9202672830170564
2.1960732024400813,-0.9637755393074029
2.19807326910897,-1.2379722983558334
2.200073335777859,-1.3782911422899171
2.2020734024467483,-1.1267045276516454
2.204073469115637,-1.075672757583326
2.206073535784526,-1.7664423929088544
2.208073602453415,-1.3581404397867527
2.210073669122304,-1.60723636080215
2.212073735791193,-1.4110017180502283
2.214073802460082,-1.3117986168716895
2.2160738691289708,-1.0300455756780977
2.21807393579786,-1.1281877366032715
2.220074002466749,-1.2226192813894905
2.2220740691356378,-1.801526703256242
2.2240741358045266,-0.8755661517949781
2.2260742024734155,-1.402754730177132
2.2280742691423048,-1.3039973020883424
2.2300743358111936,-1.544052501744991
2.2320744024800825,-1.4193538485294779
2.2340744691489713,-1.0464776295979084
2.2360745358178606,-1.3721859530702434
2.2380746024867495,-1.573956092114587
2.2400746691556384,-1.4369797342939223
2.242074735824527,-1.3282156910635206
2.2440748024934165,-1.3868843986262551
2.2460748691623054,-0.8983334648716743
2.248074935831194,-1.1887857632039942
2.250075002500083,-1.462143426066333
2.2520750691689724,-1.6742117231218296
2.2540751358378612,-1.0562955166666694
2.25607520250675,-1.4577330606311132
2.258075269175639,-1.3811055015099327
2.2600753358445282,-1.5482997779111927
2.262075402513417,-1.2854170083099583
2.264075469182306,-1.363929452412727
2.266075535851195,-1.5998918622773262
2.268075602520084,-1.6025033960485742
2.270075669188973,-1.5390576810591738
2.272075735857862,-1.3458177434290657
2.2740758025267507,-1.3801320925284948
2.2760758691956395,-1.70949715876452
2.278075935864529,-1.4855971987392722
2.2800760025334177,-1.2743523790674445
2.2820760692023065,-1.5598421344272393
2.2840761358711954,-1.765657891586497
2.2860762025400847,-1.3902286505459722
2.2880762692089736,-1.2567582846454257
2.2900763358778624,-1.6682742146088927
2.2920764025467513,-1.4419361033568765
2.2940764692156406,-1.4481909036301148
2.2960765358845294,-1.6317841161264715
2.2980766025534183,-1.28313116923188
2.300076669222307,-1.521624763618123
2.3020767358911964,-1.7894799223294804
2.3040768025600853,-1.5476036829096265
2.306076869228974,-1.630075664004667
2.308076935897863,-1.3616860245531215
2.3100770025667523,-1.7609269097523834
2.312077069235641,-1.5137782863094085
2.31407713590453,-1.1657298848569406
2.316077202573419,-1.2951072294765098
2.318077269242308,-1.8875367585692153
2.320077335911197,-1.247852095300142
2.322077402580086,-1.3209406511642041
2.3240774692489747,-1.5510544834262256
2.326077535917864,-1.3983838089163318
2.328077602586753,-1.241248256050664
2.3300776692556417,-1.4674279517631899
2.3320777359245306,-1.6736677934526032
2.3340778025934195,-1.7590922052730469
2.3360778692623088,-1.433444108690852
2.3380779359311976,-1.4275133690639414
2.3400780026000865,-1.326071817604604
2.3420780692689753,-1.6467708925853572
2.3440781359378646,-1.429117098762299
2.3460782026067535,-1.2753468941420263
2.3480782692756423,-1.2454253549352152
2.350078335944531,-1.5830999424669012
2.3520784026134205,-1.2369854604120225
2.3540784692823093,-1.3237854657095434
2.356078535951198,-1.5012296139799073
2.358078602620087,-0.8827381825155078
2.3600786692889764,-1.2855877104474518
2.362078735957865,-1.6608417789719392
2.364078802626754,-1.012081052880113
2.366078869295643,-1.2643611855342698
2.3680789359645322,-1.5836420331518721
2.370079002633421,-1.4204629761065048
2.37207906930231,-1.2528872149231831
2.374079135971199,-1.1478481083272616
2.376079202640088,-1.4609697336954799
2.378079269308977,-1.0682411534021807
2.380079335977866,-1.09577792388312
2.3820794026467547,-1.0795588492203612
2.384079469315644,-1.6856202392454231
2.386079535984533,-1.3312051758088688
2.3880796026534217,-1.3093714344108585
2.3900796693223105,-0.887648457961926
2.3920797359911994,-0.8591904961711886
2.3940798026600887,-1.122820667853309
2.3960798693289775,-1.2781134949468655
2.3980799359978664,-0.9069865622072254
2.4000800026667553,-1.0619431274818267
2.4020800693356446,-1.1873210921690123
2.4040801360045334,-0.8189960850452647
2.4060802026734223,-0.9665834332705651
2.408080269342311,-0.9665033456943107
2.4100803360112004,-0.8963218434504997
2.4120804026800893,-0.8276504901997097
2.414080469348978,-1.0919689739511333
2.416080536017867,-1.0000065901707158
2.4180806026867563,-0.7298431440309616
2.420080669355645,-0.943036411559269
2.422080736024534,-1.002584661926634
2.424080802693423,-0.7628136476164507
2.426080869362312,-0.7433546716206014
2.428080936031201,-0.7601920054962654
2.43008100270009,-0.5390998586445662
2.4320810693689787,-0.4434666082055598
2.434081136037868,-0.685403540103955
2.436081202706757,-0.8057258859588496
2.4380812693756457,-0.6211662112694378
2.4400813360445346,-0.44157350412365903
2.442081402713424,-0.08478537611529025
2.4440814693823127,-1.0106585189850392
2.4460815360512016,-0.7166741782743297
2.4480816027200905,-0.7981395366102346
2.4500816693889793,-0.8108505329217552
2.4520817360578686,-0.46941109049217145
2.4540818027267575,-0.4286168187926566
2.4560818693956463,-0.6340401510471196
2.458081936064535,-0.6996245994818809
2.4600820027334245,-0.4368298755233142
2.4620820694023133,-0.5406862813191187
2.464082136071202,-0.561071152709874
2.466082202740091,-0.02331278144072435
2.4680822694089803,-0.2708677510251517
2.470082336077869,-0.5439191256129337
2.472082402746758,-0.09081932247879881
2.474082469415647,-0.18114444310873945
2.476082536084536,-0.49505201733193366
2.478082602753425,-0.15308334737037568
2.480082669422314,-0.4631515009362752
2.482082736091203,-0.3520627712187678
2.484082802760092,-0.09301143571897588
2.486082869428981,-0.47310255077310603
2.48808293609787,-0.38472081112509593
2.4900830027667586,-0.05199527429473157
2.492083069435648,-0.031803557193902335
2.494083136104537,-0.012173107644316748
2.4960832027734257,-0.5261677005145347
2.4980832694423145,-0.39375617288652787
2.500083336111204,-0.2439877266035881
2.5020834027800927,-0.16929721720239999
2.5040834694489815,0.10391519618266329
2.5060835361178704,0.1506170263284862
2.5080836027867592,0.08689473990004468
2.5100836694556485,0.01160179327510387
2.5120837361245374,0.21603274104447562
2.5140838027934262,0.34558415858435576
2.516083869462315,0.153069245315247
2.5180839361312044,0.31696310152383844
2.5200840028000933,0.17366474443723592
2.522084069468982,-0.018136383334123374
2.524084136137871,0.40638904002490195
2.5260842028067603,0.3203431795679764
2.528084269475649,0.06228158655569932
2.530084336144538,0.6354155652586037
2.532084402813427,0.29932957411682704
2.534084469482316,0.4028159450443183
2.536084536151205,0.33974021791132014
2.538084602820094,0.3762536766788175
2.5400846694889827,0.28576837158597657
2.542084736157872,0.2772363369932519
2.544084802826761,0.640650107601539
2.5460848694956497,0.22412885403594984
2.5480849361645386,0.40051131112208604
2.550085002833428,0.6282877281493916
2.5520850695023167,0.627484122111612
2.5540851361712056,0.2645750076897949
2.5560852028400944,0.3209126472826883
2.5580852695089837,0.9572090905567565
2.5600853361778726,0.6994462385614039
2.5620854028467615,0.48567481942436924
2.5640854695156503,0.4471126655180596
2.566085536184539,0.5086472863514588
2.5680856028534285,0.8859242125390554
2.5700856695223173,0.5347813849030314
2.572085736191206,0.699258753497326
2.574085802860095,0.6004844239112341
2.5760858695289843,0.5860173657758014
2.578085936197873,0.8858685208094363
2.580086002866762,0.7213034669281563
2.582086069535651,0.9916727810027663
2.58408613620454,0.9281450579370834
2.586086202873429,0.841379009950735
2.588086269542318,1.1090681181577895
2.5900863362112068,0.9120754698731222
2.592086402880096,1.3060156451620435
2.594086469548985,0.723095467232094
2.5960865362178738,1.036042213208337
2.5980866028867626,1.3202333928025398
2.600086669555652,0.9659428326868656
2.602086736224541,1.0727094444158314
2.6040868028934296,1.1716329787800412
2.6060868695623185,1.3427098016192394
2.608086936231208,0.9380894088434126
2.6100870029000967,0.9391726855312712
2.6120870695689855,1.0630963098217154
2.6140871362378744,0.9936000727485802
2.6160872029067637,1.2436000407752044
2.6180872695756525,1.3232946270138717
2.6200873362445414,0.7202595352103294
2.6220874029134302,1.0434371129535447
2.624087469582319,1.5961236816546482
2.6260875362512084,1.4158527561490208
2.6280876029200972,1.2218470924462492
2.630087669588986,1.22019127759943
2.632087736257875,1.76938065124382
2.6340878029267643,1.350292626555657
2.636087869595653,1.2179381271372294
2.638087936264542,1.4464602932597512
2.640088002933431,1.391947964188144
2.64208806960232,1.2916960739125942
2.644088136271209,1.606436996614422
2.646088202940098,1.3901326186478153
2.6480882696089867,1.576214109757839
2.650088336277876,1.573213721522953
2.652088402946765,1.2596760784056793
2.6540884696156537,1.1945448806928107
2.6560885362845426,1.6432505884755495
2.658088602953432,1.4907911776639495
2.6600886696223207,1.1244160800279421
2.6620887362912096,1.1222421481331837
2.6640888029600984,1.7608037106855712
2.6660888696289877,1.4976205394733888
2.6680889362978766,1.1949182485370051
2.6700890029667654,1.4173709885129138
2.6720890696356543,1.7076485370894638
2.674089136304543,1.4835203622353
2.6760892029734324,1.4387248641250758
2.6780892696423213,1.7796557980382957
2.68008933631121,1.304104751304814
2.682089402980099,1.8014980298858105
2.6840894696489883,1.6751508258490138
2.686089536317877,1.5815836767188367
2.688089602986766,1.1323337395987128
2.690089669655655,1.2875837481019188
2.692089736324544,1.5397741276180157
2.694089802993433,1.5118352372683215
2.696089869662322,1.5026431454342097
2.6980899363312107,1.4414193175620067
2.7000900030001,1.2592275215825834
2.702090069668989,1.5474526576515282
2.7040901363378778,1.8518303740265083
2.7060902030067666,1.6290885819602972
2.708090269675656,1.432781626721039
2.7100903363445448,1.6959606266295915
2.7120904030134336,1.5502421909111543
2.7140904696823225,1.826525833051642
2.716090536351212,1.330320982856754
2.7180906030201006,1.5644249220217847
2.7200906696889895,1.2013393763172031
2.7220907363578783,1.4569544017196117
2.7240908030267676,1.8804509949502795
2.7260908696956565,1.3312469352766891
2.7280909363645454,1.6045312325293568
2.730091003033434,1.3963412048002997
2.732091069702323,1.318726041442419
2.7340911363712124,1.1614884571870503
2.7360912030401012,1.3772432265207977
2.73809126970899,1.7344335532716157
2.740091336377879,1.7421726789108902
2.7420914030467682,1.7735079376793643
2.744091469715657,1.6740417198587811
2.746091536384546,1.8288946210331731
2.748091603053435,1.3507675530774057
2.750091669722324,1.5209854034457944
2.752091736391213,1.3774719196604273
2.754091803060102,1.3678959737680965
2.7560918697289907,1.0699963817953746
2.75809193639788,1.340832588604298
2.760092003066769,1.3088806440778713
2.7620920697356577,1.1467506667935017
2.7640921364045465,1.1534939884613462
2.766092203073436,1.2581530968160621
2.7680922697423247,1.2007796859527033
2.7700923364112136,1.0683556123808802
2.7720924030801024,1.4741203274319838
2.7740924697489917,1.2754931068721946
2.7760925364178806,1.4320412071466921
2.7780926030867694,1.2260552627827415
2.7800926697556583,1.3621312778641004
2.7820927364245476,1.269332679768783
2.7840928030934364,1.239259833393186
2.7860928697623253,1.278517677164637
2.788092936431214,0.7406797572579775
2.790093003100103,0.827865190039474
2.7920930697689923,1.2826959743253696
2.794093136437881,1.203090904313093
2.79609320310677,1.3269520128325183
2.798093269775659,1.0972729326007256
2.800093336444548,1.1069969363494843
2.802093403113437,1.1821788696536955
2.804093469782326,0.9826692859989081
2.8060935364512147,1.101963631141396
2.808093603120104,1.0019222003446626
2.810093669788993,1.1333212866800058
2.8120937364578817,0.96226604429049
2.8140938031267706,1.3911708550406576
2.81609386979566,1.236506673240506
2.8180939364645488,1.0353364183785214
2.8200940031334376,0.8951512585058236
2.8220940698023265,0.9582825812413531
2.8240941364712158,0.9155894071798822
2.8260942031401046,1.0662901261871238
2.8280942698089935,0.7613380836170426
2.8300943364778823,0.8727143140366218
2.8320944031467716,0.7433065106588929
2.8340944698156605,0.9319769309243604
2.8360945364845493,0.8191843284965513
2.838094603153438,0.8478223897210504
2.8400946698223275,0.7365943923413925
2.8420947364912164,0.8906227825237246
2.844094803160105,0.9868591636186638
2.846094869828994,0.8043457850296702
2.848094936497883,0.6639646751910253
2.8500950031667722,0.4283640565294639
2.852095069835661,0.5230090213887999
2.85409513650455,0.6507778774556419
2.856095203173439,0.4062493072285986
2.858095269842328,0.4177864379740873
2.860095336511217,1.0015620471005038
2.862095403180106,0.6974744613438749
2.8640954698489947,0.5577719841480316
2.866095536517884,0.8994215963788286
2.868095603186773,0.4984912974320737
2.8700956698556617,0.5661744143233528
2.8720957365245505,0.6182598093044114
2.87409580319344,0.3716482033652523
2.8760958698623287,0.5067072385130882
2.8780959365312175,0.4055810246083126
2.8800960032001064,0.4212280107692281
2.8820960698689957,0.42049032377060475
2.8840961365378845,0.2634612313928399
2.8860962032067734,0.145982038419756
2.8880962698756623,0.5222713924609113
2.8900963365445516,0.259888878504138
2.8920964032134404,0.06896039427338177
2.8940964698823293,0.47624472296477016
2.896096536551218,0.03405591905482333
2.8980966032201074,0.8629153404158416
2.9000966698889963,0.24122611198940797
2.902096736557885,0.22996648044820767
2.904096803226774,0.1809730677144558
2.906096869895663,0.18929634356681094
2.908096936564552,0.28447616213057564
2.910097003233441,0.32384122434137164
2.91209706990233,-0.03501275456964076
2.9140971365712187,0.030137484402522854
2.916097203240108,-0.45117711598281385
2.918097269908997,0.1621758149413912
2.9200973365778857,-0.19748687735129503
2.9220974032467746,0.0482164225651983
2.924097469915664,0.23528677767111714
2.9260975365845527,0.05523666677072911
2.9280976032534416,-0.11376813291795083
2.9300976699223305,-0.23263901471196624
2.9320977365912197,-0.10207652442043869
2.9340978032601086,-0.30528199404811873
2.9360978699289975,-0.29962171759237427
2.9380979365978863,-0.6515642363180234
2.9400980032667756,-0.09253664566777142
2.9420980699356645,-0.1764728937392916
2.9440981366045533,-0.5109590437860283
2.946098203273442,-0.48214005126929105
2.9480982699423315,-0.23861413209998988
2.9500983366112203,-0.6255269172135014
2.952098403280109,-0.1998751547644977
2.954098469948998,-0.3516028288720636
2.9560985366178874,-0.3558592768095042
2.958098603286776,-0.624506379599001
2.960098669955665,-0.5297720779176649
2.962098736624554,-0.5911304107222815
2.9640988032934428,-0.3022375509990006
2.966098869962332,-0.7904768809086474
2.968098936631221,-0.6639478995890203
2.97009900330011,-0.5480350049172931
2.9720990699689986,-0.5134808077611666
2.974099136637888,-0.6206635407221714
2.976099203306777,-0.6239465582451518
2.9780992699756657,-0.39089388409599407
2.9800993366445545,-0.468354905954004
2.982099403313444,-0.7999308762887467
2.9840994699823327,-0.5598310959679041
2.9860995366512215,-0.810186968081219
2.9880996033201104,-0.7473319853779221
2.9900996699889997,-0.8674999720204081
2.9920997366578885,-1.22709656492645
2.9940998033267774,-0.7173542907229128
2.9960998699956662,-0.5263631577383793
2.9980999366645555,-1.0806022751330842
3.0001000033334444,-0.6442460904072758
3.0021000700023333,-1.0728853682811579
3.004100136671222,-1.302646771176431
3.0061002033401114,-0.555299010973173
3.0081002700090003,-1.28613401572165
3.010100336677889,-1.0716283730356433
3.012100403346778,-0.7800859992400145
3.0141004700156673,-0.9487557136185136
3.016100536684556,-1.059691079470493
3.018100603353445,-0.8999094106900274
3.020100670022334,-1.1617321529895979
3.0221007366912227,-1.1285551893252992
3.024100803360112,-0.9565729291171579
3.026100870029001,-0.8830931878373499
3.0281009366978897,-0.5805446872297103
3.0301010033667786,-0.8162477848052498
3.032101070035668,-1.1809211766519134
3.0341011367045567,-1.021733413174344
3.0361012033734456,-1.2037269535401096
3.0381012700423344,-1.2474491433864943
3.0401013367112237,-1.2809726239980055
3.0421014033801126,-1.1280632397323873
3.0441014700490014,-1.3508940105040586
3.0461015367178903,-1.091008920968128
3.0481016033867796,-1.3133591781865568
3.0501016700556685,-0.985008467618529
3.0521017367245573,-1.4760400897958743
3.054101803393446,-1.0877289579810239
3.0561018700623355,-1.1419291733783643
3.0581019367312243,-1.3032838416544725
3.060102003400113,-1.649782065297877
3.062102070069002,-1.3357365608303358
3.0641021367378913,-1.4563823891822618
3.06610220340678,-1.3086468882937454
3.068102270075669,-1.8858202898342449
3.070102336744558,-0.7109415665640152
3.0721024034134468,-1.2848292736050277
3.074102470082336,-1.3258431741258643
3.076102536751225,-1.5886089323421801
3.0781026034201138,-1.7109741624009216
3.0801026700890026,-1.624880530175796
3.082102736757892,-1.4604548921194747
3.084102803426781,-1.5165838486668632
3.0861028700956696,-1.5131610651085
3.0881029367645585,-1.4100603781291672
3.090103003433448,-1.2294655114316486
3.0921030701023366,-1.2506565084309214
3.0941031367712255,-1.4825090517457826
3.0961032034401144,-1.0475052525081148
3.0981032701090037,-1.3259425297135792
3.1001033367778925,-1.4377981774629924
3.1021034034467814,-1.0705621754829857
3.1041034701156702,-1.8594189928627274
3.1061035367845595,-1.2731821395875247
3.1081036034534484,-1.4793194892926511
3.1101036701223372,-1.269403273870915
3.112103736791226,-2.2363097459342907
3.1141038034601154,-1.679949349549971
3.1161038701290042,-1.644131679171323
3.118103936797893,-1.278252750175832
3.120104003466782,-1.6949045802506701
3.1221040701356713,-1.6693548348240592
3.12410413680456,-1.6178381506976562
3.126104203473449,-1.64403803924594
3.128104270142338,-1.5426448252010576
3.1301043368112267,-1.7333925850802798
3.132104403480116,-1.7825960470988464
3.134104470149005,-1.083586626233372
3.1361045368178937,-1.359550146189446
3.1381046034867826,-1.5012576378781384
3.140104670155672,-1.7275791399493976
3.1421047368245607,-1.3991043934430085
3.1441048034934496,-1.1136441984418455
3.1461048701623384,-1.333133072436216
3.1481049368312277,-1.5830101960467065
3.1501050035001166,-1.4177791737078416
3.1521050701690054,-1.3940232323334476
3.1541051368378943,-1.1085093196674158
3.1561052035067836,-1.3184096668899696
3.1581052701756724,-1.8730490035211222
3.1601053368445613,-1.6059681624177038
3.16210540351345,-1.4385763761690065
3.1641054701823395,-1.65658527808597
3.1661055368512283,-1.3701583109676805
3.168105603520117,-1.3151498395729329
3.170105670189006,-1.5966359504380256
3.1721057368578953,-1.2587434503695534
3.174105803526784,-1.7529610561631273
3.176105870195673,-1.53910843442348
3.178105936864562,-1.1399641033660175
3.180106003533451,-1.050476157932417
3.18210607020234,-1.2780552523129325
3.184106136871229,-1.3726480786885316
3.1861062035401178,-1.3691525464592786
3.1881062702090066,-0.9933985403058749
3.190106336877896,-1.0580812673117905
3.1921064035467848,-1.3921749066539943
3.1941064702156736,-1.0299208102827009
3.1961065368845625,-1.3373340994072285
3.1981066035534518,-1.786714502802056
3.2001066702223406,-1.1439810105612556
3.2021067368912295,-1.357821000898796
3.2041068035601183,-1.043335382460754
3.2061068702290076,-0.9592159244263243
3.2081069368978965,-1.132538138153749
3.2101070035667854,-1.5366532313843135
3.212107070235674,-1.2492049584274239
3.2141071369045635,-1.0376543252393504
3.2161072035734524,-1.2324658018930823
3.2181072702423412,-1.0756610277319687
3.22010733691123,-1.078312643002794
3.2221074035801194,-1.059079184046151
3.2241074702490082,-1.1764900151907105
3.226107536917897,-1.184938260905795
3.228107603586786,-1.0661782432012399
3.2301076702556752,-0.9714159790396012
3.232107736924564,-0.9694467683743525
3.234107803593453,-1.1747062681089901
3.236107870262342,-1.0908640780059748
3.238107936931231,-1.0005407222420752
3.24010800360012,-0.9917864916138573
3.242108070269009,-0.8977187810415357
3.2441081369378977,-0.9818936981278519
3.2461082036067865,-0.8748343083657664
3.248108270275676,-0.7403304709946747
3.2501083369445647,-0.5598955645183282
3.2521084036134535,-0.9113398219794859
3.2541084702823424,-0.8542235137988711
3.2561085369512317,-0.6868863603848855
3.2581086036201206,-0.8643006949894739
3.2601086702890094,-0.7310655560656423
3.2621087369578983,-0.805950700588112
3.2641088036267876,-0.8604541775444133
3.2661088702956764,-0.9707794470658374
3.2681089369645653,-0.5350620606563106
3.270109003633454,-0.5298523398656254
3.2721090703023434,-0.5315652697789393
3.2741091369712323,-0.5830220133100751
3.276109203640121,-0.7643241912815216
3.27810927030901,-0.37486994035430643
3.2801093369778993,-0.5470896358947399
3.282109403646788,-0.555576976319059
3.284109470315677,-0.3023509254005873
3.286109536984566,-0.6371882777961997
3.288109603653455,-0.3553601624324336
3.290109670322344,-0.3442969163380392
3.292109736991233,-0.46522598511513347
3.2941098036601217,-0.07988586825951821
3.296109870329011,-0.38783973488231094
3.2981099369979,-0.22130862649004523
3.3001100036667887,-0.6909570511723824
3.3021100703356776,-0.5106528669746035
3.3041101370045665,-0.5706940124933267
3.3061102036734558,-0.14005929107149606
3.3081102703423446,-0.5534578773333084
3.3101103370112335,-0.5397313578516898
3.3121104036801223,-0.5782544937015124
3.3141104703490116,-0.1073410284144936
3.3161105370179005,0.014415303758283787
3.3181106036867893,-0.17363586618765267
3.320110670355678,0.005752951652662847
3.3221107370245675,-0.03337147989368658
3.3241108036934564,-0.3654398672868393
3.326110870362345,0.09351139568809513
3.328110937031234,-0.0864880887309331
3.3301110037001234,-0.054722929517687785
3.332111070369012,-0.21846708543531249
3.334111137037901,0.14557835798318575
3.33611120370679,0.2286347410317281
3.3381112703756792,0.3012553910676211
3.340111337044568,0.14570209382296306
3.342111403713457,-0.25712712125297976
3.344111470382346,0.05560015607438912
3.346111537051235,-0.1599413058511334
3.348111603720124,0.353207565722338
3.350111670389013,0.4288098876212455
3.3521117370579017,0.25311859930311587
3.354111803726791,0.2755343000662446
3.35611187039568,0.27705658502034036
3.3581119370645687,0.16592246667232954
3.3601120037334575,0.3035765366667295
3.3621120704023464,0.053081282596249224
3.3641121370712357,0.1450893737234477
3.3661122037401245,0.2021286446788909
3.3681122704090134,0.6852327751253987
3.3701123370779023,0.6329925205981084
3.3721124037467916,0.6470241183335644
3.3741124704156804,0.6834508559545138
3.3761125370845693,0.8229889847306644
3.378112603753458,0.3454360945658501
3.3801126704223474,0.43528925306066163
3.3821127370912363,0.55356759361573
3.384112803760125,0.3076417536656331
3.386112870429014,0.47668467523543123
3.3881129370979033,0.5852299422476468
3.390113003766792,0.2100922485744291
3.392113070435681,0.7877998354218118
3.39411313710457,0.3479285696164215
3.396113203773459,0.8500542160044793
3.398113270442348,0.62639829005893
3.400113337111237,0.5146241643278076
3.4021134037801257,0.8227558171900486
3.404113470449015,0.7243645613059281
3.406113537117904,0.8453850166341241
3.4081136037867927,0.7765976704174226
3.4101136704556816,0.7489528582588219
3.412113737124571,0.9332450489226625
3.4141138037934597,0.7342424186755918
3.4161138704623486,0.8995225193952749
3.4181139371312375,0.9401718225017978
3.4201140038001263,1.0012083987416653
3.4221140704690156,1.3718289543993567
3.4241141371379045,1.0055258513017404
3.4261142038067933,0.78736522075098
3.428114270475682,1.3146856051613907
3.4301143371445715,1.0930633126393887
3.4321144038134603,0.9718079963198442
3.434114470482349,1.1760361249070581
3.436114537151238,0.8062010903461618
3.4381146038201273,1.2761725251185188
3.440114670489016,1.1924640163724318
3.442114737157905,1.226880024969547
3.444114803826794,1.3353870275895672
3.446114870495683,1.222200291185672
3.448114937164572,0.8813581705946802
3.450115003833461,1.2006963219276632
3.45211507050235,1.3711259760371788
3.454115137171239,1.301521681126278
3.456115203840128,0.9917903684654824
3.458115270509017,1.2948827595255668
3.4601153371779056,1.0399591878710568
3.462115403846795,1.3654044192659358
3.464115470515684,1.1788654832774892
3.4661155371845727,1.3635965517012032
3.4681156038534615,1.3457581007402968
3.470115670522351,1.3643652989969235
3.4721157371912397,1.0702721903924135
3.4741158038601285,1.3342074344177441
3.4761158705290174,0.761177880416161
3.4781159371979062,1.2110000088129549
3.4801160038667955,1.287445139093271
3.4821160705356844,1.4173176973676083
3.4841161372045732,1.265879059767621
3.486116203873462,1.5691922709482509
3.4881162705423514,1.4016577186585408
3.4901163372112403,1.451126750561952
3.492116403880129,1.4404427033031497
3.494116470549018,1.2368515895531238
3.4961165372179073,1.1786265849815845
3.498116603886796,1.833928927190244
3.500116670555685,1.518463922919206
3.502116737224574,1.3377091405233696
3.504116803893463,1.4794600539194864
3.506116870562352,1.888798132452691
3.508116937231241,1.2555151267767493
3.5101170039001297,1.0885104052587251
3.512117070569019,1.5076452403051332
3.514117137237908,1.4270704074108473
3.5161172039067967,1.372948613223341
3.5181172705756856,1.4342163439108668
3.520117337244575,1.428664258475591
3.5221174039134637,1.8266964881276881
3.5241174705823526,1.243527960572355
3.5261175372512414,1.1826262483232637
3.5281176039201303,1.5240423864362211
3.5301176705890196,1.7361699250218192
3.5321177372579085,1.476629312265291
3.5341178039267973,1.5005567329277842
3.536117870595686,1.638601552985441
3.5381179372645755,1.288438160809183
3.5401180039334643,1.4359657684690634
3.542118070602353,1.8823891182639367
3.544118137271242,1.468622743201326
3.5461182039401313,1.2875624107308654
3.54811827060902,1.6878482933537873
3.550118337277909,1.3372386106450187
3.552118403946798,1.4370341285320718
3.554118470615687,1.329919345279849
3.556118537284576,1.6140474237432507
3.558118603953465,1.2196824019901313
3.5601186706223538,1.446703977959016
3.562118737291243,1.6167162792334238
3.564118803960132,1.2442121470818133
3.5661188706290208,1.405452409360889
3.5681189372979096,1.7276624294524832
3.570119003966799,1.4208837096052995
3.572119070635688,1.5672561366188427
3.5741191373045766,1.377265967251735
3.5761192039734655,1.307328348734578
3.578119270642355,1.11278173383125
3.5801193373112437,1.3716881365845308
3.5821194039801325,1.2752459847539266
3.5841194706490214,1.4964293344541633
3.58611953731791,1.3435776056785684
3.5881196039867995,1.5748384821755832
3.5901196706556884,1.448227998967282
3.5921197373245772,1.7133260110491375
3.594119803993466,1.4833992905539934
3.5961198706623554,1.130603248622382
3.5981199373312442,1.3013145167514857
3.600120004000133,1.4878097368910592
3.602120070669022,1.1599438223831073
3.6041201373379113,1.61404870330475
3.6061202040068,1.6332919215281907
3.608120270675689,1.2926062039536386
3.610120337344578,1.3195098619567385
3.612120404013467,1.0133930638168256
3.614120470682356,1.0722670020374954
3.616120537351245,1.6900918963978495
3.6181206040201337,1.478272492185143
3.620120670689023,1.382301443197355
3.622120737357912,1.5481823588578199
3.6241208040268007,1.4188860039426485
3.6261208706956896,1.0536526883626136
3.628120937364579,1.227835549791853
3.6301210040334677,1.2569280599124772
3.6321210707023566,1.4777710776064708
3.6341211373712454,1.244799349334795
3.6361212040401347,1.3064096229373994
3.6381212707090236,0.9522371997646799
3.6401213373779124,1.1246215974733178
3.6421214040468013,1.107065209495084
3.64412147071569,0.9991386501689938
3.6461215373845794,0.5801200927905898
3.6481216040534683,1.090065350389985
3.650121670722357,1.2941349122715318
3.652121737391246,1.3210322541260924
3.6541218040601353,1.0946211016787677
3.656121870729024,0.7603844399195889
3.658121937397913,1.024749257015671
3.660122004066802,1.4309989543173025
3.662122070735691,0.8185910840094631
3.66412213740458,0.852962057212758
3.666122204073469,1.023594733056762
3.6681222707423577,0.4646932718624157
3.670122337411247,0.546729644777703
3.672122404080136,0.4275259134169963
3.6741224707490248,1.0377011536375418
3.6761225374179136,1.201809660515205
3.678122604086803,0.5056771406581624
3.6801226707556918,0.8653055211303925
3.6821227374245806,0.8893964879750195
3.6841228040934695,0.5709004871909776
3.686122870762359,1.0108704549517786
3.6881229374312476,0.7532036337049997
3.6901230041001365,0.5578967390038856
3.6921230707690254,0.8930818257673536
3.6941231374379147,0.8324845061955604
3.6961232041068035,0.7322972036695993
3.6981232707756924,0.7821095536227847
3.700123337444581,0.5752090513688382
3.70212340411347,0.7339463801962766
3.7041234707823594,0.37077645624569283
3.7061235374512482,0.5643196777928042
3.708123604120137,0.23585960557510954
3.710123670789026,0.5944270318304511
3.7121237374579152,0.43476965602544015
3.714123804126804,0.24377989766203884
3.716123870795693,0.423771024353544
3.718123937464582,-0.09498260019969923
3.720124004133471,0.22304623311695843
3.72212407080236,0.28111168804376335
3.724124137471249,0.48047532014504024
3.7261242041401377,0.36168956455635815
3.728124270809027,0.11282548423681901
3.730124337477916,0.17042425991659826
3.7321244041468047,-0.042422063493397055
3.7341244708156935,-0.1299350023712261
3.736124537484583,0.14481457931689729
3.7381246041534717,-0.10694906216876726
3.7401246708223606,0.27077211950540103
3.7421247374912494,0.154009562641716
3.7441248041601387,0.09813916477259443
3.7461248708290276,0.1359907136182368
3.7481249374979164,0.25095515679515135
3.7501250041668053,0.12050040287271728
3.7521250708356946,0.020473633774266968
3.7541251375045834,0.03800674101582758
3.7561252041734723,-0.041531027943098625
3.758125270842361,-0.5330652019922061
3.76012533751125,-0.059010677345914406
3.7621254041801393,-0.09765372546575223
3.764125470849028,-0.19251154819041483
3.766125537517917,-0.26119515654281855
3.768125604186806,-0.23352258522229719
3.770125670855695,-0.22399764283867118
3.772125737524584,-0.08857415752421294
3.774125804193473,-0.5746267090464096
3.7761258708623617,-0.8207666115578798
3.778125937531251,-0.4867206239511164
3.78012600420014,-0.5173549364601139
3.7821260708690287,-0.27071321708858953
3.7841261375379176,0.04308908219912727
3.786126204206807,-0.6755636715488121
3.7881262708756958,-0.5945772670298334
3.7901263375445846,-0.1937202071131654
3.7921264042134735,-0.43601611353904784
3.7941264708823628,-0.7003952086532391
3.7961265375512516,-0.8651476242356093
3.7981266042201405,-0.22450487108453843
3.8001266708890293,-0.6123634521874342
3.8021267375579186,-0.5051758982426835
3.8041268042268075,-0.6466044607309365
3.8061268708956963,-0.6879420685413354
3.808126937564585,-0.18255993894744038
3.8101270042334745,-0.8156216438691142
3.8121270709023634,-0.6551005716500498
3.814127137571252,-0.7686179611854429
3.816127204240141,-0.8415039837395496
3.81812727090903,-0.6317761670852527
3.8201273375779192,-0.9007110097099125
3.822127404246808,-0.9135387220150534
3.824127470915697,-0.6982139667087531
3.826127537584586,-0.8086271953274367
3.828127604253475,-0.6793311347937163
3.830127670922364,-0.7403316194062755
3.832127737591253,-0.6471352431674786
3.8341278042601417,-0.8514074276233317
3.836127870929031,-1.1252831953730766
3.83812793759792,-0.9109071955919548
3.8401280042668087,-0.8498337032211012
3.8421280709356975,-0.9813618572248718
3.844128137604587,-0.8224676949849762
3.8461282042734757,-1.1724087573145743
3.8481282709423645,-1.186297040792825
3.8501283376112534,-1.0803813871104027
3.8521284042801427,-1.3447452656907335
3.8541284709490315,-1.0774491815093212
3.8561285376179204,-0.99460055922426
3.8581286042868093,-1.3816459249069992
3.8601286709556986,-0.9310300160319711
3.8621287376245874,-1.4633238865749583
3.8641288042934763,-1.3822578926894045
3.866128870962365,-1.1557896865398174
3.8681289376312544,-0.9833007882962488
3.8701290043001433,-1.1566878021687494
3.872129070969032,-1.2783026790850311
3.874129137637921,-1.1570889837700982
3.87612920430681,-1.3761416770383532
3.878129270975699,-1.1883580461587673
3.880129337644588,-1.4197239412184777
3.882129404313477,-1.5329995898531137
3.8841294709823657,-1.4487397470956422
3.886129537651255,-1.2738558052896376
3.888129604320144,-1.319018058149907
3.8901296709890327,-1.378110224875852
3.8921297376579216,-1.4200356453579395
3.894129804326811,-1.1890494475773106
3.8961298709956997,-1.071487659204026
3.8981299376645886,-1.5904338952912764
3.9001300043334775,-1.6451490903471362
3.9021300710023668,-1.3903925312078558
3.9041301376712556,-1.3195339715116512
3.9061302043401445,-1.3149177138885861
3.9081302710090333,-1.56874428310411
3.9101303376779226,-1.1188857349718335
3.9121304043468115,-1.495629473822437
3.9141304710157003,-1.2243138117961432
3.916130537684589,-1.6199607993308662
3.9181306043534785,-1.4555745667075835
3.9201306710223673,-1.5769149801638376
3.922130737691256,-1.3681190998881725
3.924130804360145,-1.2902108138540689
3.926130871029034,-1.4588665168909065
3.928130937697923,-1.4345307545372805
3.930131004366812,-1.307575933499421
3.932131071035701,-1.5051096774650956
3.9341311377045898,-1.4877416707445354
3.936131204373479,-1.5013226179927206
3.938131271042368,-1.7671613813158182
3.940131337711257,-1.2430378047839712
3.9421314043801456,-1.5417609510459844
3.944131471049035,-1.1461072835708659
3.946131537717924,-1.6473981943638418
3.9481316043868127,-1.492826931177174
3.9501316710557015,-1.4776019345591476
3.952131737724591,-1.7437193819160954
3.9541318043934797,-1.4930226944008642
3.9561318710623685,-1.855471686362071
3.9581319377312574,-1.6819449866799845
3.9601320044001467,-1.8906059032678202
3.9621320710690355,-1.675959758729981
3.9641321377379244,-1.5461916034258427
3.9661322044068132,-1.3019510589356647
3.9681322710757025,-1.7283300595740305
3.9701323377445914,-1.8859121756235293
3.9721324044134803,-1.5785564109369257
3.974132471082369,-1.3820637682565786
3.9761325377512584,-1.355389542448306
3.9781326044201473,-1.3041505956381627
3.980132671089036,-1.2938196480699569
3.982132737757925,-1.4963908687566236
3.984132804426814,-1.4916939069286113
3.986132871095703,-1.518799554422688
3.988132937764592,-1.3830473317374534
3.990133004433481,-1.7029865791161805
3.9921330711023697,-1.240281868783393
3.994133137771259,-1.5611381275341194
3.996133204440148,-1.4231249075220471
3.9981332711090367,-1.2220924323132873
4.000133337777926,-1.094878111776814
4.002133404446814,-1.6472859488619833
4.004133471115703,-1.5006375402128627
4.006133537784593,-1.5007819050722988
4.008133604453482,-1.2792619220281898
4.010133671122371,-1.0674538966538265
4.01213373779126,-1.4645584036480277
4.0141338044601484,-1.8006360045682601
4.016133871129037,-1.330619437779293
4.018133937797926,-1.4767080366424306
4.020134004466815,-1.1751622389651515
4.022134071135705,-1.1716539370357895
4.024134137804594,-1.6223268546370784
4.0261342044734825,-1.266052365346974
4.028134271142371,-0.8270719516037384
4.03013433781126,-1.347992733462163
4.032134404480149,-1.2243171097676275
4.034134471149038,-0.8461865303489239
4.036134537817927,-1.1595069041425126
4.0381346044868165,-1.2746997384912284
4.040134671155705,-1.4339697619735463
4.042134737824594,-1.313361728438437
4.044134804493483,-1.0948941478864445
4.046134871162372,-1.0899004455039432
4.048134937831261,-1.2725039247717842
4.05013500450015,-0.7406438459105089
4.0521350711690385,-1.4644358613866688
4.054135137837927,-1.0792401206287479
4.056135204506817,-1.0367137494864707
4.058135271175706,-0.8203549160540082
4.060135337844595,-0.987551777278558
4.062135404513484,-1.2521142604866884
4.0641354711823725,-1.0492977708771087
4.066135537851261,-1.3402191872082694
4.06813560452015,-0.7898073971158135
4.070135671189039,-0.8705692491219348
4.072135737857929,-0.8317990069672226
4.074135804526818,-0.8066342660665784
4.0761358711957065,-0.9336829998049674
4.078135937864595,-1.21726442533881
4.080136004533484,-0.7981330106381253
4.082136071202373,-0.7646478860312482
4.084136137871262,-0.7121126969256908
4.086136204540151,-0.6466397699940081
4.0881362712090406,-0.5996055084857156
4.090136337877929,-0.7108560765919806
4.092136404546818,-1.0470530668503903
4.094136471215707,-1.1890887648081896
4.096136537884596,-0.5785684443301501
4.098136604553485,-0.5660055577193244
4.100136671222374,-0.7891324142799625
4.1021367378912625,-0.7646802358689976
4.104136804560151,-0.9279925298172039
4.106136871229041,-1.3214446097642052
4.10813693789793,-0.5663599371603267
4.110137004566819,-0.3739204170339777
4.112137071235708,-0.19513543101846853
4.114137137904597,-0.45745905974474776
4.116137204573485,-0.4912891819022383
4.118137271242374,-0.5116622498882444
4.120137337911263,-0.413357432088618
4.122137404580153,-0.35427373596149303
4.124137471249042,-0.5292221977810879
4.126137537917931,-0.2287236230603515
4.128137604586819,-0.491335616879389
4.130137671255708,-0.8968954416341994
4.132137737924597,-0.4127932559393779
4.134137804593486,-0.1988255324233982
4.136137871262375,-0.26322045221795165
4.138137937931265,-0.1022263801806309
4.1401380046001535,-0.32087373742674014
4.142138071269042,-0.7757136880007711
4.144138137937931,-0.3046441129097451
4.14613820460682,-0.31851404457326665
4.148138271275709,0.0799504649771125
4.150138337944598,-0.11169471182297734
4.152138404613487,-0.028120518191452254
4.1541384712823755,0.004680979867260016
4.156138537951265,-0.20385409115164776
4.158138604620154,-0.2093951217496296
4.160138671289043,-0.11831846346678905
4.162138737957932,0.07170047390464367
4.164138804626821,0.5343043449995512
4.1661388712957095,0.1193676158187966
4.168138937964598,-0.01036829757528954
4.170139004633487,-0.314517562127587
4.172139071302377,0.184420198655994
4.174139137971266,-0.0821356131090306
4.176139204640155,-0.1364523423707734
4.1781392713090435,-0.1268036079958654
4.180139337977932,0.4899866474209964
4.182139404646821,0.303018974932333
4.18413947131571,-0.13730986952633076
4.186139537984599,-0.1034331782752736
4.188139604653489,0.3655285228159382
4.1901396713223775,0.477920972221831
4.192139737991266,0.443588586639284
4.194139804660155,0.33116740367305625
4.196139871329044,0.32717998234351886
4.198139937997933,0.4269615816118357
4.200140004666822,0.3084772740874376
4.202140071335711,0.5015966386034457
4.2041401380046,0.8613987868927794
4.206140204673489,0.47983006881080625
4.208140271342378,0.6369849493056601
4.210140338011267,0.6056137118311247
4.212140404680156,0.6690584737571177
4.214140471349045,0.3035387342220638
4.2161405380179335,0.6324058643754551
4.218140604686822,0.48902816120618897
4.220140671355711,0.514712321798278
4.222140738024601,0.5819289954223757
4.22414080469349,0.7232079776940367
4.226140871362379,0.5696118877922662
4.228140938031268,0.5903931686197362
4.230141004700156,0.4914721292178834
4.232141071369045,1.1517780201807701
4.234141138037934,0.30217729198878984
4.236141204706823,0.5089464738644185
4.238141271375713,0.5688877599382397
4.240141338044602,0.7520844971181011
4.24214140471349,0.5124601555919879
4.244141471382379,0.711572865307861
4.246141538051268,0.6650158959591376
4.248141604720157,0.8545150998509625
4.250141671389046,1.039851524789573
4.252141738057935,0.6521774663867627
4.2541418047268245,1.1128562874743186
4.256141871395713,0.875850104819583
4.258141938064602,0.9588875534750698
4.260142004733491,0.9354851551467653
4.26214207140238,1.0365973488745617
4.264142138071269,1.1617170852047252
4.266142204740158,1.0760455818260717
4.2681422714090465,1.23885565349357
4.270142338077935,1.112822366316828
4.272142404746825,0.7384095699955251
4.274142471415714,1.2085266230766145
4.276142538084603,1.2501590475617266
4.278142604753492,0.9881613249226147
4.2801426714223805,1.3448930462655144
4.282142738091269,0.7870487713279675
4.284142804760158,1.109400959960696
4.286142871429047,1.1049381292771112
4.288142938097937,1.1999238817851712
4.290143004766826,1.4096718767470582
4.2921430714357145,1.205192005599467
4.294143138104603,1.4182476658453156
4.296143204773492,0.8860006410242695
4.298143271442381,0.9658616069772024
4.30014333811127,1.1139321136807254
4.302143404780159,1.3585289220674408
4.3041434714490485,1.036114968634045
4.306143538117937,1.3577606986654993
4.308143604786826,1.4686041477056084
4.310143671455715,1.369949837160905
4.312143738124604,1.1849301640298338
4.314143804793493,1.14005471370161
4.316143871462382,1.1943417262229492
4.3181439381312705,1.5178919560584219
4.32014400480016,1.4937168564061731
4.322144071469049,1.6196880813183387
4.324144138137938,1.6284399749371556
4.326144204806827,1.3797517056887718
4.328144271475716,1.1879770555679237
4.3301443381446045,1.227304413840336
4.332144404813493,1.5431151824112737
4.334144471482382,1.3500471924438988
4.336144538151271,1.579576840438932
4.338144604820161,1.4164715391052367
4.34014467148905,1.3531542865725836
4.3421447381579386,1.4961160033565302
4.344144804826827,1.5410487420018615
4.346144871495716,1.5997881239364051
4.348144938164605,1.2955345236402511
4.350145004833494,1.7300256915448329
4.352145071502383,1.3215484540963902
4.354145138171273,1.4380453533721416
4.356145204840161,1.7332062136073234
4.35814527150905,1.5747688255381997
4.360145338177939,1.3530588080033827
4.362145404846828,1.1201021215024332
4.364145471515717,1.7735622307840682
4.366145538184606,1.1984508744911309
4.368145604853495,1.477521276261908
4.370145671522384,1.7879400461848085
4.372145738191273,1.4833391010584016
4.374145804860162,1.3957632737630994
4.376145871529051,1.2423663491661305
4.37814593819794,1.514533930545067
4.380146004866829,1.600616872591145
4.3821460715357174,1.2007115501098773
4.384146138204606,1.3150010469305244
4.386146204873495,1.4657327122899617
4.388146271542385,1.5147615928326688
4.390146338211274,1.5192016859931092
4.392146404880163,1.505243027944533
4.3941464715490515,1.6717307526148149
4.39614653821794,1.5472450070349428
4.398146604886829,1.4152398519665053
4.400146671555718,1.2565674644314788
4.402146738224607,1.4781987943672408
4.404146804893497,1.5405886880473494
4.4061468715623855,1.3108097074587606
4.408146938231274,1.4765235880867449
4.410147004900163,1.1687700116209006
4.412147071569052,1.3512363715024953
4.414147138237941,1.4354575000846015
4.41614720490683,1.4348669439193984
4.418147271575719,1.4742928155274275
4.420147338244608,1.4011957468985445
4.422147404913497,1.3134634707013026
4.424147471582386,1.1920182472242127
4.426147538251275,1.1355034969508664
4.428147604920164,1.1772930565250963
4.430147671589053,1.279410225217809
4.4321477382579415,1.3365373300454466
4.43414780492683,1.4392372105566458
4.43614787159572,1.2744583353536323
4.438147938264609,1.4084336407049711
4.440148004933498,1.1616357218847688
4.442148071602387,1.4708843499691953
4.4441481382712755,0.8919465579733002
4.446148204940164,1.3363109991385735
4.448148271609053,1.2663607413511775
4.450148338277942,1.3370305476335334
4.452148404946831,1.144498656568325
4.454148471615721,1.1793688973184295
4.4561485382846096,1.1354340345890215
4.458148604953498,1.456431324837841
4.460148671622387,0.9696617448008892
4.462148738291276,1.3837925254764418
4.464148804960165,0.9610557346560605
4.466148871629054,0.9363389395050771
4.468148938297943,1.1560369225891423
4.470149004966832,0.9037185359512674
4.472149071635721,1.1538328442564847
4.47414913830461,0.9478307743905018
4.476149204973499,1.358073535899915
4.478149271642388,1.1406254203546191
4.480149338311277,1.069054623876314
4.482149404980166,1.1788174414241934
4.484149471649054,1.1654494945113971
4.486149538317944,0.6847798762838312
4.488149604986833,0.2289888842830281
4.490149671655722,0.5970892632652831
4.492149738324611,0.7220412882327634
4.4941498049935,1.1302273095497115
4.496149871662388,1.2398791977554338
4.498149938331277,0.7955585177525198
4.500150005000166,0.7935905747152862
4.502150071669055,0.8259685410286153
4.504150138337945,1.0129992621943287
4.506150205006834,0.5858587873249519
4.5081502716757225,0.9979334816479181
4.510150338344611,0.9145469898520886
4.5121504050135,1.0212171932711698
4.514150471682389,1.0900766616706254
4.516150538351278,0.7174749397526933
4.518150605020167,0.9724727632528163
4.5201506716890565,0.9852615623492489
4.522150738357945,0.5812074155992945
4.524150805026834,0.6286292653672857
4.526150871695723,0.7489392112333961
4.528150938364612,-0.08374593332974556
4.530151005033501,0.5348324234719061
4.53215107170239,0.8999291012981046
4.5341511383712785,0.5900558134812949
4.536151205040168,0.7869547734637685
4.538151271709057,0.7067731513728337
4.540151338377946,0.675885968121172
4.542151405046835,0.8973190022094364
4.544151471715724,0.27587872026897436
4.5461515383846125,0.3885242135636333
4.548151605053501,0.5041604602997205
4.55015167172239,0.030702309602602618
4.552151738391279,0.6403281765149818
4.554151805060169,0.5953758574789356
4.556151871729058,0.09264622294375993
4.5581519383979465,0.0072024870432062515
4.560152005066835,0.13220748693434722
4.562152071735724,0.2807751512411308
4.564152138404613,0.351112715175907
4.566152205073502,0.4313794415185913
4.568152271742391,-0.23227026477037857
4.5701523384112805,-0.10444316835482428
4.572152405080169,0.3555417982694746
4.574152471749058,-0.16739635031841346
4.576152538417947,0.054530118343054435
4.578152605086836,-0.21869006304626942
4.580152671755725,-0.15339516662599337
4.582152738424614,-0.40274040014967694
4.5841528050935025,-0.027206435682596633
4.586152871762392,-0.09538129256104838
4.588152938431281,-0.0875723843817135
4.59015300510017,-0.1191175432066192
4.592153071769059,0.14085275153896895
4.594153138437948,-0.25283700949507437
4.596153205106837,-0.11238540159894433
4.598153271775725,-0.05442684158630967
4.600153338444614,-0.43891804342310137
4.602153405113504,-0.2828332264917425
4.604153471782393,-0.38924048623035656
4.606153538451282,-0.1754213557945066
4.608153605120171,-0.20168390611428744
4.610153671789059,-0.4446429480077613
4.612153738457948,-0.4949352389372396
4.614153805126837,-0.6442531404650094
4.616153871795726,-0.5495241409662246
4.618153938464615,-0.1103514041517421
4.620154005133505,-0.4779326609390262
4.6221540718023935,-0.22563394830615568
4.624154138471282,-0.7177508634075322
4.626154205140171,-0.5423611685917051
4.62815427180906,-0.6804475797359637
4.630154338477949,-0.5955449446402897
4.632154405146838,-0.8197402502870093
4.634154471815727,-0.8493548793898454
4.636154538484616,-0.5312740793591066
4.638154605153505,-0.7178946669608447
4.640154671822394,-0.38038259619696835
4.642154738491283,-0.7169082513402281
4.644154805160172,-0.5511537553678573
4.646154871829061,-1.076962183166139
4.6481549384979495,-0.6525658734403468
4.650155005166838,-0.7109054465076645
4.652155071835728,-0.5057067130187588
4.654155138504617,-0.5041111494348084
4.656155205173506,-0.6901938805457473
4.658155271842395,-0.8084061796516651
4.6601553385112835,-0.9001023851716465
4.662155405180172,-0.8070738443724317
4.664155471849061,-1.256308163659969
4.66615553851795,-0.7220113662059435
4.668155605186839,-1.102173272433263
4.670155671855729,-0.9219714811717662
4.6721557385246175,-0.5991852086587894
4.674155805193506,-0.795078793114656
4.676155871862395,-1.0078587135469104
4.678155938531284,-1.0108975527637092
4.680156005200173,-0.8351028196694074
4.682156071869062,-1.123346676318762
4.684156138537951,-1.1171772564563005
4.68615620520684,-1.1233333916304427
4.688156271875729,-1.4050318676488005
4.690156338544618,-1.247948690373909
4.692156405213507,-0.7934393589204283
4.694156471882396,-0.9434317105084348
4.696156538551285,-1.0133351295392223
4.6981566052201735,-1.1066567679348527
4.700156671889062,-1.052434046457472
4.702156738557952,-1.5250318518287973
4.704156805226841,-1.149023001627398
4.70615687189573,-1.4967541194818827
4.708156938564619,-0.9623652472819071
4.7101570052335076,-1.0585714497676817
4.712157071902396,-1.0422933498703104
4.714157138571285,-1.1792595002566737
4.716157205240174,-1.3482331716882305
4.718157271909064,-1.0448823090478943
4.720157338577953,-1.5201016134469247
4.722157405246842,-1.420570625288162
4.72415747191573,-1.5412545128251032
4.726157538584619,-1.2642179494814165
4.728157605253508,-1.1415866658527989
4.730157671922397,-1.267355566173068
4.732157738591286,-1.3054934173675454
4.734157805260175,-1.2907567293601316
4.7361578719290645,-1.3882093629374932
4.738157938597953,-1.2210883113941668
4.740158005266842,-1.3429868254723991
4.742158071935731,-1.3866825520338215
4.74415813860462,-1.3149404066010444
4.746158205273509,-1.228981924851462
4.748158271942398,-1.7066939025651897
4.7501583386112864,-1.539558890067551
4.752158405280176,-1.510887956912048
4.754158471949065,-1.5297144545345747
4.756158538617954,-1.3842421560891256
4.758158605286843,-1.5703947938512712
4.760158671955732,-1.6552906714318363
4.7621587386246205,-1.5877899962688937
4.764158805293509,-1.3920394642533183
4.766158871962398,-1.4707766916747467
4.768158938631288,-1.1947522635142862
4.770159005300177,-1.2273385793772262
4.772159071969066,-1.5032617717941987
4.7741591386379545,-1.2973913070115213
4.776159205306843,-1.4855840261497293
4.778159271975732,-1.766203729556239
4.780159338644621,-1.5721166420442767
4.78215940531351,-1.7268637471795472
4.784159471982399,-1.4673925293451529
4.7861595386512885,-1.494257454299555
4.788159605320177,-1.7764514107443052
4.790159671989066,-1.4700172408993868
4.792159738657955,-1.2173958217105931
4.794159805326844,-1.7131445893022097
4.796159871995733,-1.4243717033056722
4.798159938664622,-1.464509667133617
4.8001600053335105,-0.8571541053199053
4.8021600720024,-1.223638914273805
4.804160138671289,-1.8106707515758653
4.806160205340178,-1.2590225008884786
4.808160272009067,-1.6133911246054102
4.810160338677956,-1.6596833905503412
4.8121604053468445,-1.546541678923443
4.814160472015733,-1.4939194974664278
4.816160538684622,-1.449826008608515
4.818160605353512,-1.7311500248992102
4.820160672022401,-1.3001352900284284
4.82216073869129,-1.8060058006048456
4.8241608053601785,-1.6735032430546253
4.826160872029067,-1.7556903081617663
4.828160938697956,-1.2856852959342744
4.830161005366845,-1.4047375814546528
4.832161072035734,-1.3007068212497557
4.834161138704624,-1.1002852838214037
4.836161205373513,-1.2970252409075569
4.838161272042401,-1.4030230686566578
4.84016133871129,-1.286090967899724
4.842161405380179,-1.2963442023238647
4.844161472049068,-1.4790312090932531
4.846161538717957,-1.394853752873708
4.848161605386846,-1.3138089431689497
4.850161672055735,-1.059614349230226
4.852161738724624,-1.1246958085336238
4.854161805393513,-1.3056644527599768
4.856161872062402,-1.14053175177795
4.858161938731291,-1.1818730863407694
4.86016200540018,-1.1665870747481386
4.862162072069069,-1.5117674569450807
4.864162138737957,-1.4665858516325065
4.866162205406846,-0.8030143275626256
4.868162272075736,-1.3163043205190936
4.870162338744625,-1.4097267455540905
4.872162405413514,-1.201483305059329
4.874162472082403,-1.255648050495279
4.8761625387512915,-1.0035082069539554
4.87816260542018,-1.2674754927140859
4.880162672089069,-1.4441753849446108
4.882162738757958,-1.3243200455412216
4.884162805426848,-1.0096183641547498
4.886162872095737,-0.7883858833665294
4.8881629387646255,-0.7175408891164907
4.890163005433514,-1.1926981126821388
4.892163072102403,-0.7120645010885606
4.894163138771292,-1.0283269231519994
4.896163205440181,-1.1418975189122371
4.89816327210907,-0.9430984455916839
4.900163338777959,-0.8984283045704361
4.902163405446848,-1.0011581252775676
4.904163472115737,-0.9404587076452152
4.906163538784626,-0.7454913870383161
4.908163605453515,-1.1085139303503966
4.910163672122404,-0.9836662626958297
4.912163738791293,-0.8957717560717156
4.9141638054601815,-0.9338392210476205
4.91616387212907,-0.7212899022077883
4.91816393879796,-0.8625861251890362
4.920164005466849,-0.8615466997529425
4.922164072135738,-0.5555219495891686
4.924164138804627,-0.5214818405588404
4.9261642054735155,-0.9948870807278234
4.928164272142404,-1.0732709385790038
4.930164338811293,-0.638280619368611
4.932164405480182,-0.9642296055818926
4.934164472149072,-0.716514491466281
4.936164538817961,-0.6595012633700089
4.9381646054868495,-0.7323755414916141
4.940164672155738,-0.5280314744939322
4.942164738824627,-0.40584140646270156
4.944164805493516,-0.6546125925951626
4.946164872162405,-0.240524178716008
4.948164938831294,-1.016019314573428
4.950165005500183,-0.7341999781868124
4.952165072169072,-0.513018986592518
4.954165138837961,-0.7057963781064349
4.95616520550685,-0.6242703385276133
4.958165272175739,-0.42867318047920333
4.960165338844628,-0.5210505716630842
4.962165405513517,-0.5327838071001552
4.964165472182406,-0.9131153818771651
4.966165538851294,-0.11971353868294882
4.968165605520184,-0.21446629208119158
4.970165672189073,-0.7635084898725497
4.972165738857962,-0.42301594801376474
4.974165805526851,-0.2707930479178563
4.97616587219574,-0.20635626112634228
4.978165938864628,-0.11506737188366217
4.980166005533517,-0.2778765069253727
4.982166072202406,-0.1651203601882385
4.984166138871296,-0.4212505625560181
4.986166205540185,0.12548647160747628
4.988166272209074,-0.15167057396027556
4.9901663388779625,0.08599188090538064
4.992166405546851,0.3069850376455018
4.99416647221574,0.1612964375526253
4.996166538884629,-0.4751478161861796
4.998166605553518,-0.30028031861230636
5.000166672222408,-0.20815285069004819
5.0021667388912965,-0.06656741903582106
5.004166805560185,-0.057344440714481984
5.006166872229074,0.21102593108956133
5.008166938897963,0.020667170058536785
5.010167005566852,-0.06851923123146156
5.012167072235741,-0.2725028306540376
5.01416713890463,0.2724930915572159
5.0161672055735185,0.05618082676303765
5.018167272242408,-0.07270146728154386
5.020167338911297,0.17904661154711243
5.022167405580186,0.4808488495492297
5.024167472249075,0.639409314798113
5.026167538917964,0.3167766771364716
5.0281676055868525,0.4358764588761066
5.030167672255741,0.2785008113356647
5.03216773892463,0.21067159298752325
5.03416780559352,0.37186153186016
5.036167872262409,0.8552320847231472
5.038167938931298,0.5480371650628765
5.0401680056001865,0.8385304359515601
5.042168072269075,0.8597317195317529
5.044168138937964,0.7513284762430461
5.046168205606853,0.5034871721883966
5.048168272275742,0.35995318168691603
5.050168338944632,0.41626989265498954
5.0521684056135205,0.3648059453907365
5.054168472282409,0.5093588597694415
5.056168538951298,0.4023107596050044
5.058168605620187,0.6136174591503331
5.060168672289076,0.503072598586077
5.062168738957965,0.7325000765997397
5.064168805626854,0.6664976505706112
5.0661688722957425,0.49222676281380867
5.068168938964632,0.4062550513987007
5.070169005633521,0.5833566512032542
5.07216907230241,0.9871229834055929
5.074169138971299,0.831281510255332
5.076169205640188,0.8722992931679946
5.0781692723090766,1.1514656305124058
5.080169338977965,0.5648942811056209
5.082169405646854,0.7425838169910886
5.084169472315744,0.7770335238254742
5.086169538984633,1.020083571635308
5.088169605653522,1.1174998842839554
5.090169672322411,1.0112844256585412
5.092169738991299,1.4049400321028493
5.094169805660188,0.838341307428659
5.096169872329077,0.800486179131543
5.098169938997966,1.1784184533642466
5.100170005666856,0.8864608571986989
5.102170072335745,1.135103943056683
5.1041701390046335,1.301748196300987
5.106170205673522,1.2263878751827806
5.108170272342411,1.317531251374121
5.1101703390113,1.3803621293268533
5.112170405680189,0.8996855827985499
5.114170472349078,1.0174642286290012
5.1161705390179675,1.3137262344104195
5.118170605686856,1.2786876194022363
5.120170672355745,0.9805040520058964
5.122170739024634,0.9370589488472925
5.124170805693523,1.4583858632798097
5.126170872362412,1.2791460143412416
5.128170939031301,1.2717146272686584
5.1301710057001895,1.4795035033700552
5.132171072369078,1.2110585823162354
5.134171139037968,1.8006257109862989
5.136171205706857,1.4258160023548858
5.138171272375746,1.5105961095743077
5.140171339044635,1.4293746319774123
5.1421714057135235,0.9414855081178171
5.144171472382412,1.437650572669919
5.146171539051301,1.7251545541262918
5.14817160572019,1.5392188789165793
5.15017167238908,1.2679466410947189
5.152171739057969,1.3497050366308152
5.1541718057268575,1.2973612927872784
5.156171872395746,1.2749484348919928
5.158171939064635,1.5339454189320265
5.160172005733524,1.7652074841300247
5.162172072402413,0.9923722579686627
5.164172139071302,1.385886364318087
5.1661722057401915,1.6106684210625855
5.16817227240908,1.4347393520919436
5.170172339077969,1.6942863929774676
5.172172405746858,1.5258169550218903
5.174172472415747,1.6388738741839095
5.176172539084636,1.1316119343566824
5.178172605753525,1.2601356623796311
5.1801726724224135,1.4439610004322985
5.182172739091302,1.4633449652534785
5.184172805760192,1.6423886604514037
5.186172872429081,1.0827613138267758
5.18817293909797,1.315578335178426
5.190173005766859,1.5161907918379698
5.1921730724357475,1.7712855091115751
5.194173139104636,1.4787310362077088
5.196173205773525,1.5416351552080403
5.198173272442414,1.4730322364269377
5.200173339111304,1.6733528251770253
5.202173405780193,1.2426216888901116
5.204173472449082,1.1957482549322402
5.20617353911797,1.4484017615952955
5.208173605786859,1.608451933440298
5.210173672455748,1.2194344024061294
5.212173739124637,1.454497410853123
5.214173805793526,1.3979983997211654
5.216173872462416,1.5933938956284934
5.2181739391313045,1.5963182743012638
5.220174005800193,1.4830127270171352
5.222174072469082,1.365870425003591
5.224174139137971,1.298833568273657
5.22617420580686,1.6929523280187255
5.228174272475749,1.4675994197222448
5.230174339144638,1.4793287668951307
5.232174405813527,1.8354097628709445
5.234174472482416,0.9688820894543475
5.236174539151305,1.408669350817047
5.238174605820194,1.3996883909375162
5.240174672489083,1.2222508627100614
5.242174739157972,1.0975438745814192
5.2441748058268605,1.2779251324445187
5.246174872495749,1.6257151130049907
5.248174939164638,1.5890862587560528
5.250175005833528,1.2386415657883578
5.252175072502417,1.3805281984614528
5.254175139171306,1.2745051562151386
5.2561752058401945,1.511027065760468
5.258175272509083,1.5203095281369254
5.260175339177972,1.5727907163193398
5.262175405846861,1.1109656237108236
5.26417547251575,1.584472245266266
5.26617553918464,1.5865360022117405
5.2681756058535285,1.2736220132349658
5.270175672522417,1.1725735183735537
5.272175739191306,1.0488284127546326
5.274175805860195,1.791300200934252
5.276175872529084,1.197159420158685
5.278175939197973,1.2981243230349067
5.280176005866862,1.190146029252895
5.282176072535751,1.5414351416883367
5.28417613920464,1.3108272069581706
5.286176205873529,1.2372852702932238
5.288176272542418,1.2844757503723125
5.290176339211307,1.2159008698270954
5.292176405880196,1.3375265559656258
5.2941764725490845,1.0333562175737554
5.296176539217973,1.1650468307516084
5.298176605886862,1.069995460232524
5.300176672555752,0.9805350278758657
5.302176739224641,1.0761147292678699
5.30417680589353,1.1255876044282407
5.3061768725624185,1.3812693584792242
5.308176939231307,0.9716562970634772
5.310177005900196,1.3855638594299051
5.312177072569085,0.9792863107810281
5.314177139237974,1.0302420615978372
5.316177205906864,1.072862270672724
5.318177272575753,1.2465019305325111
5.320177339244641,0.6502593877610663
5.32217740591353,0.8048222003926447
5.324177472582419,0.630442594934922
5.326177539251308,0.397037629922008
5.328177605920197,0.6504132750542686
5.330177672589086,0.8437914185232469
5.3321777392579754,1.2690583334693102
5.334177805926864,0.7407397013580235
5.336177872595753,0.9742201118282685
5.338177939264642,1.1375491113685334
5.340178005933531,0.7890670546145899
5.34217807260242,0.714386347148975
5.344178139271309,1.0433179942230402
5.346178205940197,0.8075171823696893
5.348178272609086,0.7520113363465704
5.350178339277976,0.9308473774598098
5.352178405946865,0.5392038811203365
5.354178472615754,0.9593585704339298
5.356178539284643,0.46121525082469783
5.3581786059535315,0.8439478257913182
5.36017867262242,0.8724469104233301
5.362178739291309,0.4453152298857782
5.364178805960198,0.6043066260574509
5.366178872629088,0.3220573429428227
5.368178939297977,0.2647542075301383
5.3701790059668655,0.6246022799976275
5.372179072635754,0.4377607305556028
5.374179139304643,0.4727992176055288
5.376179205973532,0.6224512913406159
5.378179272642421,0.319990657750206
5.38017933931131,0.56585639895388
5.3821794059801995,0.3345814419200225
5.384179472649088,0.5693122043116323
5.386179539317977,0.3866913683409017
5.388179605986866,0.3579410845200775
5.390179672655755,0.27829804126314933
5.392179739324644,-0.004336598728099328
5.394179805993533,0.3582307882968164
5.3961798726624215,0.23105822275799684
5.398179939331311,0.119787884349259
5.4001800060002,0.2486179922672086
5.402180072669089,0.12175417819985546
5.404180139337978,0.5324414878151636
5.406180206006867,0.22387197679875354
5.4081802726757555,0.1952858986969339
5.410180339344644,-0.07706469633266316
5.412180406013533,0.2472858816449291
5.414180472682422,0.2919611225468481
5.416180539351312,-0.001352876974000522
5.418180606020201,-0.05697927078233863
5.4201806726890895,0.06079976115201058
5.422180739357978,-0.30301178598936673
5.424180806026867,0.09316989642430154
5.426180872695756,-0.2243394410781562
5.428180939364645,-0.2648467757818673
5.430181006033534,0.05985775752205949
5.432181072702424,-0.007076906525727011
5.434181139371312,-0.03045937126259113
5.436181206040201,-0.058881993869581345
5.43818127270909,0.150203448981715
5.440181339377979,-0.36428436526762736
5.442181406046868,-0.2763557082756145
5.444181472715757,-0.14017688431394615
5.4461815393846456,-0.23023721889424828
5.448181606053535,-0.20950550627834025
5.450181672722424,-0.25859974307404143
5.452181739391313,-0.3353508102934847
5.454181806060202,0.07584649381935898
5.456181872729091,-0.25076822433009843
5.45818193939798,-0.45741327963757955
5.460182006066868,-0.565094374296707
5.462182072735757,-0.5604697505690085
5.464182139404646,-0.5319118187462771
5.466182206073536,-0.5816791468515257
5.468182272742425,-0.3835626567194204
5.470182339411314,-0.530770069845847
5.4721824060802025,-0.42872153286622766
5.474182472749091,-0.8459786321222493
5.47618253941798,-1.0564386634100713
5.478182606086869,-0.521749633634426
5.480182672755758,-0.3314700237329602
5.482182739424648,-0.7240408439217687
5.4841828060935365,-0.6354175160451894
5.486182872762425,-0.9080229663679944
5.488182939431314,-0.7997063226358821
5.490183006100203,-0.5739388051363206
5.492183072769092,-1.0246741221585292
5.494183139437981,-1.0728363099375098
5.49618320610687,-0.6690070874127367
5.498183272775759,-0.7433045248570631
5.500183339444648,-0.9232900489354531
5.502183406113537,-0.5590438004018978
5.504183472782426,-1.0061199482290575
5.506183539451315,-0.7496999416565214
5.508183606120204,-0.8929412671047485
5.5101836727890925,-0.5253703119213238
5.512183739457981,-0.9286526565350091
5.514183806126871,-1.1210175476458637
5.51618387279576,-0.947918894503056
5.518183939464649,-1.3637577415727502
5.520184006133538,-1.228985555094439
5.5221840728024265,-1.0282366529615046
5.524184139471315,-0.6840248035972087
5.526184206140204,-1.3998319031209165
5.528184272809093,-1.126209734217535
5.530184339477982,-0.9791009265435202
5.532184406146872,-0.9176318423243485
5.5341844728157605,-1.2984957116874074
5.536184539484649,-0.9215208277501251
5.538184606153538,-1.6094402186030923
5.540184672822427,-1.3506617508403624
5.542184739491316,-1.2914758215038427
5.544184806160205,-1.4341220094717089
5.546184872829094,-1.3673016003824299
5.548184939497983,-1.395556505759765
5.550185006166872,-1.4192125476354263
5.552185072835761,-1.3517703455326842
5.55418513950465,-1.2375089949352902
5.556185206173539,-0.9126953257627173
5.558185272842428,-1.3351059373236016
5.5601853395113165,-1.275076175045408
5.562185406180205,-1.2813389699320956
5.564185472849095,-1.424950920714304
5.566185539517984,-1.2656200961798263
5.568185606186873,-1.3439475359248314
5.570185672855762,-1.015805519134303
5.572185739524651,-1.4885758992863884
5.574185806193539,-1.3136326935841693
5.576185872862428,-1.4138996948678415
5.578185939531317,-0.9328977789195434
5.580186006200206,-1.7221517965321689
5.582186072869096,-1.275439273935223
5.584186139537985,-1.20794351977473
5.5861862062068735,-1.5986215442027105
5.588186272875762,-1.174397431157769
5.590186339544651,-1.3885651539178632
5.59218640621354,-1.5440570200776706
5.594186472882429,-1.4731634442974797
5.596186539551318,-1.5095223527506587
5.5981866062202075,-1.3556750385184828
5.600186672889096,-1.5070382659855033
5.602186739557985,-1.5457486870691945
5.604186806226874,-1.373946168942218
5.606186872895763,-1.408840497633096
5.608186939564652,-1.7414236988156409
5.610187006233541,-1.496729421303715
5.6121870729024295,-1.5302200704991888
5.614187139571319,-1.2785654244536153
5.616187206240208,-1.583944746885916
5.618187272909097,-1.1987589721931893
5.620187339577986,-1.6956006732917877
5.622187406246875,-1.372085687298543
5.6241874729157635,-1.2592637120758603
5.626187539584652,-1.2215478253164604
5.628187606253541,-1.23520262768512
5.630187672922431,-1.385016717985535
5.63218773959132,-1.125253775127806
5.634187806260209,-1.251222684379571
5.6361878729290975,-1.0284971236853098
5.638187939597986,-1.5188104964873195
5.640188006266875,-1.4785678415238064
5.642188072935764,-1.7875138643707458
5.644188139604653,-1.4341566733218596
5.646188206273542,-1.4277708988375077
5.6481882729424315,-1.2679487208045468
5.65018833961132,-1.2184931446903264
5.652188406280209,-1.6696039976287855
5.654188472949098,-1.4606307862397023
5.656188539617987,-1.2314167456006042
5.658188606286876,-0.9748762959562753
5.660188672955765,-1.4362212216051127
5.6621887396246535,-1.613404260127905
5.664188806293543,-1.6821672719268306
5.666188872962432,-1.5725635754450547
5.668188939631321,-1.754618458289532
5.67018900630021,-1.5282133338013353
5.672189072969099,-1.4696072728419387
5.6741891396379875,-0.9517740317989742
5.676189206306876,-1.4676087778622193
5.678189272975765,-1.0795757473261727
5.680189339644655,-1.11668626318763
5.682189406313544,-1.7113118747142515
5.684189472982433,-1.7561335623524792
5.686189539651322,-1.2202003225091083
5.68818960632021,-1.2695867965358785
5.690189672989099,-1.1020469724258815
5.692189739657988,-1.3230243998171904
5.694189806326877,-1.4090288435102825
5.696189872995766,-1.2116103911828757
5.698189939664656,-1.3733652756354466
5.7001900063335444,-1.3490545269500545
5.702190073002433,-0.939231739123221
5.704190139671322,-0.9919234877517593
5.706190206340211,-1.0798395961844172
5.7081902730091,-1.4988518860534883
5.710190339677989,-1.0890919047987768
5.712190406346878,-1.1714513017793384
5.714190473015767,-1.4153863924090222
5.716190539684656,-1.0411690639012086
5.718190606353545,-1.2262460605001604
5.720190673022434,-1.1608336352728732
5.722190739691323,-1.327315329300365
5.724190806360212,-0.9483801144183474
5.7261908730291005,-1.04303159888738
5.728190939697989,-1.297744273134355
5.730191006366879,-1.0653330230830944
5.732191073035768,-1.0262830661669131
5.734191139704657,-0.9050150415616354
5.736191206373546,-0.9918501970752495
5.7381912730424345,-0.903212970325255
5.740191339711323,-0.7056084873384629
5.742191406380212,-0.8670400743780007
5.744191473049101,-0.7972103120754535
5.74619153971799,-1.1320827026883822
5.74819160638688,-0.6326413953459871
5.7501916730557685,-0.7385907380876829
5.752191739724657,-0.9611779069640185
5.754191806393546,-0.7802862839414275
5.756191873062435,-0.9449798698886092
5.758191939731324,-0.5733197395166695
5.760192006400213,-1.05190882332039
5.762192073069102,-0.8709502380456724
5.764192139737991,-1.0534053582447338
5.76619220640688,-0.965388738471439
5.768192273075769,-0.9535393359165589
5.770192339744658,-0.39891865654298553
5.772192406413547,-0.6059817540651635
5.774192473082436,-0.885042810287697
5.7761925397513245,-0.8385844163556354
5.778192606420213,-0.4053380231330125
5.780192673089103,-0.3341674506065777
5.782192739757992,-0.793550084080834
5.784192806426881,-0.4690039412701039
5.78619287309577,-0.3574082682540056
5.7881929397646585,-0.7448525619416587
5.790193006433547,-0.44201163569883317
5.792193073102436,-0.055125264677055585
5.794193139771325,-0.4990238533022277
5.796193206440215,-0.3460665420597344
5.798193273109104,-0.335512023827766
5.800193339777993,-0.5686925371881363
5.802193406446881,-0.47189956940432853
5.80419347311577,-0.09538411973339386
5.806193539784659,-0.5032640721307952
5.808193606453548,-0.3431136788762711
5.810193673122437,-0.19690455356248798
5.812193739791326,-0.35782600743492876
5.814193806460215,-0.4847408248956204
5.816193873129104,0.09052794135107467
5.818193939797993,-0.3894838044399337
5.820194006466882,-0.017877530298120253
5.822194073135771,-0.024184359336102954
5.82419413980466,-0.159786544282924
5.826194206473549,-0.002207566475638259
5.828194273142437,-0.3115546404031807
5.830194339811327,-0.05399284245735805
5.832194406480216,0.47809070470905757
5.834194473149105,0.4623229766176967
5.836194539817994,-0.4529982979137494
5.838194606486883,-0.057202683499238835
5.8401946731557715,0.3057902122707753
5.84219473982466,-0.025768888048313537
5.844194806493549,0.5208281868873683
5.846194873162439,-0.31165074106008417
5.848194939831328,0.08660692772498034
5.850195006500217,0.20856622921960954
5.8521950731691055,0.328119921268518
5.854195139837994,0.5257518912611586
5.856195206506883,0.15765861197665404
5.858195273175772,0.18421135012893608
5.860195339844661,0.42956557332707324
5.86219540651355,0.19283487697502363
5.8641954731824395,0.2319969097513594
5.866195539851328,0.008034448648664039
5.868195606520217,0.2754096314003121
5.870195673189106,0.697765590334786
5.872195739857995,0.4603377349847513
5.874195806526884,0.419211572860279
5.876195873195773,0.804728707780777
5.8781959398646615,0.5768889013534351
5.880196006533551,0.6067300933566149
5.88219607320244,0.45042860444213606
5.884196139871329,0.7118423827331888
5.886196206540218,0.5069344841539833
5.888196273209107,0.6705467440175714
5.8901963398779955,0.41520623324555017
5.892196406546884,0.8492860836341733
5.894196473215773,0.5773861061919644
5.896196539884663,0.11246188960453951
5.898196606553552,0.9483282646542754
5.900196673222441,1.1904043868525447
5.9021967398913295,0.7960186783319649
5.904196806560218,0.6494995356660882
5.906196873229107,0.8458761757278639
5.908196939897996,1.189219136310639
5.910197006566885,0.9847493948155905
5.912197073235775,0.9925409088246899
5.914197139904664,1.0687209797819384
5.916197206573552,0.9133407050478929
5.918197273242441,1.0227209765029555
5.92019733991133,0.7528412662863269
5.922197406580219,0.6424908406646139
5.924197473249108,0.8236902699163519
5.926197539917997,0.931193355680017
5.9281976065868855,1.122465396835405
5.930197673255775,0.9308863342897201
5.932197739924664,1.16443345448686
5.934197806593553,1.3185158981812684
5.936197873262442,1.2250554837901553
5.938197939931331,1.0873930579949127
5.94019800660022,0.8333389835707271
5.942198073269108,1.3003372006640668
5.944198139937997,0.8723662993274903
5.946198206606887,1.1099262936372076
5.948198273275776,1.0383407367025075
5.950198339944665,1.4007451109902818
5.952198406613554,0.85940981026932
5.9541984732824424,0.8330564760955008
5.956198539951331,1.222343180062751
5.95819860662022,0.9665964744290643
5.960198673289109,1.2659223473811985
5.962198739957999,1.0902580119522596
5.964198806626888,1.3857842643889344
5.9661988732957765,1.4707363600000085
5.968198939964665,1.2306272722913008
5.970199006633554,0.7429550166022985
5.972199073302443,1.8026813821567411
5.974199139971332,0.934747378646257
5.976199206640221,1.2099255243080542
5.97819927330911,1.6087954412403573
5.980199339977999,1.570042579751092
5.982199406646888,1.4818015406840574
5.984199473315777,1.3833885686791911
5.986199539984666,1.4570082030569411
5.988199606653555,1.3332567447926158
5.990199673322444,1.5545578617615663
5.9921997399913325,1.309246577443144
5.994199806660221,1.4608187622042654
5.996199873329111,1.2896829873008457
5.998199939998,1.8252057599881448
6.000200006666889,1.2911886880251202
6.002200073335778,1.6920192671558518
6.0042001400046665,1.3125724521454287
6.006200206673555,1.3670369022562843
6.008200273342444,1.340209783903132
6.010200340011333,1.5791655533528548
6.012200406680223,1.573185179517721
6.014200473349112,1.2464349081934376
6.0162005400180005,1.573550982139909
6.018200606686889,1.5016939716218438
6.020200673355778,1.555966777572755
6.022200740024667,1.2643742993363354
6.024200806693556,1.2251463916242944
6.026200873362445,2.02131155940945
6.0282009400313346,1.6433996696774038
6.030201006700223,1.379050563868358
6.032201073369112,1.4861182707295857
6.034201140038001,1.6473583666553437
6.03620120670689,1.6557628527371735
6.038201273375779,1.3876448853972558
6.040201340044668,1.5228667431753087
6.0422014067135565,1.629400912732265
6.044201473382445,1.536355518628358
6.046201540051335,1.3454165494309496
6.048201606720224,1.6591443186818937
6.050201673389113,1.7144576725125868
6.052201740058002,1.5913490315508902
6.054201806726891,1.4630645272872447
6.056201873395779,1.4871281091638306
6.058201940064668,1.6272167917242983
6.060202006733557,1.017934922405754
6.062202073402447,1.4937744354815174
6.064202140071336,1.4346106246005081
6.066202206740225,1.2398565900482381
6.0682022734091134,1.7380317000113794
6.070202340078002,1.5268243721326107
6.072202406746891,1.4366024112661944
6.07420247341578,1.2942715535277118
6.076202540084669,1.4559345276767346
6.078202606753559,1.7940522142689501
6.0802026734224475,1.3776505639782046
6.082202740091336,1.3906895524240332
6.084202806760225,1.5318408466918612
6.086202873429114,1.7503119811702588
6.088202940098003,1.2836757022164804
6.090203006766892,1.576849842663782
6.092203073435781,1.2502951056008436
6.0942031401046695,1.2684144986352408
6.096203206773559,1.509001056620081
6.098203273442448,1.3699794355131503
6.100203340111337,1.2589231250162096
6.102203406780226,1.2429330954805853
6.104203473449115,0.8934965716031763
6.1062035401180035,1.3915034356308467
6.108203606786892,1.604369278677236
6.110203673455781,1.1379396978645755
6.112203740124671,1.2746194240490087
6.11420380679356,1.3455857310330854
6.116203873462449,0.9433774946038871
6.1182039401313375,1.2988347311953752
6.120204006800226,1.1393047495301223
6.122204073469115,1.0243990340145908
6.124204140138004,1.1593003664007187
6.126204206806893,0.9509981340835694
6.128204273475783,1.0203544033055456
6.1302043401446715,1.7627746815083551
6.13220440681356,1.4518725661279845
6.134204473482449,0.6288086596640574
6.136204540151338,1.380334201964576
6.138204606820227,1.135700961784624
6.140204673489116,0.972414031168581
6.142204740158005,1.1984938219258687
6.1442048068268935,1.1445488327323052
6.146204873495783,0.9656846993642334
6.148204940164672,1.0153979296210103
6.150205006833561,1.0048550993506564
6.15220507350245,0.6665611982027617
6.154205140171339,1.1747270267996366
6.1562052068402275,1.3698270539411026
6.158205273509116,0.9387279785128133
6.160205340178005,0.9651557939742814
6.162205406846895,0.4305290743292444
6.164205473515784,0.8812514682602435
6.166205540184673,1.0561955843148063
6.168205606853562,1.2522857565553158
6.17020567352245,0.8944836418124638
6.172205740191339,0.6573742953213806
6.174205806860228,0.8059557376565932
6.176205873529117,1.132209814093975
6.178205940198007,0.8008412243491607
6.180206006866896,0.6658810775147127
6.182206073535784,0.6365033872276057
6.184206140204673,0.7219253575799827
6.186206206873562,0.7975035582931774
6.188206273542451,0.6352044174057612
6.19020634021134,0.7579737197246075
6.192206406880229,0.9802202013782155
6.1942064735491185,0.10269191691898605
6.196206540218007,0.5401407013818711
6.198206606886896,0.9188933989151704
6.200206673555785,0.2548068266456194
6.202206740224674,0.7646770664589428
6.204206806893563,0.4574710094638379
6.206206873562452,0.7100257401449793
6.2082069402313405,0.6905692641649577
6.210207006900229,-0.06315128304834078
6.212207073569119,0.6895392710904847
6.214207140238008,0.20125805321912013
6.216207206906897,0.15418781250500008
6.218207273575786,0.7921620017600184
6.2202073402446745,0.42985526374962
6.222207406913563,0.21042933934156563
6.224207473582452,0.5235491492083783
6.226207540251341,0.2864310762978834
6.228207606920231,0.3225164713710006
6.23020767358912,-0.08924783247934692
6.2322077402580085,0.25171496767255136
6.234207806926897,0.10026642918212031
6.236207873595786,-0.06320882431225969
6.238207940264675,-0.023170978360621042
6.240208006933564,0.04559923979066072
6.242208073602453,0.08375610358916057
6.2442081402713425,0.015997574581577155
6.246208206940231,0.09845513121120505
6.24820827360912,-0.12809495491432363
6.250208340278009,0.038919607074578595
6.252208406946898,0.08382297836096397
6.254208473615787,-0.08930916062601507
6.256208540284676,0.19497234206715253
6.2582086069535645,0.015114434195299911
6.260208673622453,-0.47208836570658874
6.262208740291343,-0.07613834598302592
6.264208806960232,-0.22509783218834473
6.266208873629121,-0.39016114945764335
6.26820894029801,-0.20511450574090034
6.2702090069668985,-0.2357328682085859
6.272209073635787,0.11318733159463534
6.274209140304676,-0.07719719587762472
6.276209206973565,-0.8045279202974857
6.278209273642455,-0.4243154490283543
6.280209340311344,-0.47841488176918046
6.282209406980233,0.03229808175452192
6.284209473649121,-0.3665944422202031
6.28620954031801,-0.5232364161251214
6.288209606986899,-0.5762540784102997
6.290209673655788,-0.9490899176919274
6.292209740324677,-0.09419469510966033
6.294209806993567,-0.593340980836431
6.296209873662455,-0.7243694181131896
6.298209940331344,-0.3399245671833032
6.300210007000233,-0.36244582179032436
6.302210073669122,-0.7595934767112508
6.304210140338011,-0.7873388793035133
6.3062102070069,-0.7658014769339506
6.308210273675789,-0.5535801887028132
6.310210340344678,-0.34797551247130587
6.312210407013567,-0.5678534882923973
6.314210473682456,-0.631087020854781
6.316210540351345,-0.884343297822203
6.318210607020234,-0.9154878187743921
6.320210673689123,-0.9346578466011525
6.3222107403580114,-0.8197135547543688
