time,lead1
0.0,-0.37022774325846086
0.002000066668888963,-0.1388863424843614
0.004000133337777926,-0.006028928469157105
0.006000200006666888,-0.10565195772430254
0.008000266675555852,-0.049834159846807724
0.010000333344444815,0.3505908972422547
0.012000400013333776,0.09157626612248297
0.01400046668222274,0.23827881269946358
0.016000533351111703,-0.11958355449645428
0.018000600020000666,0.20440085854610585
0.02000066668888963,0.2449810257610004
0.022000733357778593,0.6305411705944153
0.024000800026667553,0.10813062219431666
0.026000866695556516,0.21870048249958182
0.02800093336444548,0.22894076739785602
0.030001000033334443,0.12220019762844603
0.032001066702223406,0.4236794534468435
0.034001133371112366,0.10154942554821983
0.03600120004000133,0.33107950595800817
0.03800126670889029,0.15718966408842883
0.04000133337777926,0.5877558219099484
0.04200140004666822,0.5250755530671035
0.044001466715557186,0.39724688355492405
0.046001533384446146,0.6688320874400602
0.048001600053335106,0.5499724499976264
0.05000166672222407,0.7450927047648098
0.05200173339111303,0.4691155387112985
0.054001800060002,0.6910811503005352
0.05600186672889096,0.7579794636355833
0.058001933397779926,0.5561499381471826
0.060002000066668885,0.5847703969145929
0.06200206673555785,0.6459493998803012
0.06400213340444681,0.8129284028940111
0.06600220007333578,0.37594654599374094
0.06800226674222473,0.6411291815694502
0.0700023334111137,0.894826977625229
0.07200240008000267,0.6672159749351733
0.07400246674889163,0.735863534078673
0.07600253341778059,0.5343624328847585
0.07800260008666955,0.5957088259554087
0.08000266675555852,0.8305654744170364
0.08200273342444747,0.7657964895661578
0.08400280009333644,0.895598095981463
0.0860028667622254,0.9614868519230906
0.08800293343111437,0.9591460562889823
0.09000300010000332,0.9513003594061055
0.09200306676889229,1.2179496421257083
0.09400313343778126,0.5881487019170005
0.09600320010667021,1.1672993418912025
0.09800326677555918,1.1339836386612123
0.10000333344444814,0.6650379643319598
0.10200340011333711,1.2634690124211505
0.10400346678222606,1.072576051397196
0.10600353345111503,1.30909479580873
0.108003600120004,0.8576238761809547
0.11000366678889296,1.2645837616095312
0.11200373345778192,1.215039864202659
0.11400380012667088,0.9337695556277585
0.11600386679555985,0.8138117242946186
0.1180039334644488,1.1770509190050944
0.12000400013333777,1.7227715145465012
0.12200406680222674,1.0124777289656062
0.1240041334711157,1.2996240993784205
0.12600420014000466,1.270237405173931
0.12800426680889362,1.0024413284191187
0.1300043334777826,1.2697209809642571
0.13200440014667156,0.9319117272534555
0.13400446681556052,1.115020150839673
0.13600453348444946,1.436385073737712
0.13800460015333843,1.6520937210906548
0.1400046668222274,1.4046553514765514
0.14200473349111636,1.50472568222652
0.14400480016000533,1.1450616017090012
0.1460048668288943,1.650584597996921
0.14800493349778326,1.4896201143532473
0.1500050001666722,1.090105128584564
0.15200506683556117,1.5229783354544628
0.15400513350445014,1.8087761233281099
0.1560052001733391,1.5560404208136045
0.15800526684222807,1.4522887810629526
0.16000533351111704,1.4163938848107027
0.162005400180006,1.7362812077429235
0.16400546684889494,1.6076058041552659
0.1660055335177839,1.223653260137375
0.16800560018667288,1.3140500280218508
0.17000566685556184,1.8328297502142556
0.1720057335244508,0.9879485238263557
0.17400580019333978,1.5493347558629038
0.17600586686222874,1.2474510600491482
0.17800593353111768,1.7608313850399726
0.18000600020000665,1.4282732472628688
0.18200606686889562,1.5634498476607372
0.18400613353778458,1.1944741096595866
0.18600620020667355,1.8872493104741865
0.18800626687556252,1.5736519388680337
0.19000633354445148,1.5959309510933946
0.19200640021334042,1.5425109039551859
0.1940064668822294,1.3004950118622969
0.19600653355111836,1.4714266416196917
0.19800660022000732,1.245004212536839
0.2000066668888963,1.7088801730681102
0.20200673355778526,1.8714760498747265
0.20400680022667422,1.4307870359088688
0.2060068668955632,1.2045390866457701
0.20800693356445213,1.1948564478329087
0.2100070002333411,1.061028676929701
0.21200706690223006,1.7477453470063966
0.21400713357111903,1.6383340853857054
0.216007200240008,1.4874309915617863
0.21800726690889696,1.5231838653636056
0.22000733357778593,1.594885899854489
0.22200740024667487,1.4318943622972138
0.22400746691556384,1.475639538216456
0.2260075335844528,1.4595777614505199
0.22800760025334177,1.2856711802478535
0.23000766692223074,1.433341023101634
0.2320077335911197,1.6737627973810938
0.23400780026000867,1.564321008315798
0.2360078669288976,1.642660546712699
0.23800793359778658,1.738060403473839
0.24000800026667554,1.676674220751711
0.2420080669355645,1.5734896012332642
0.24400813360445348,1.3861735172227083
0.24600820027334244,1.6228619474496753
0.2480082669422314,1.383873341517111
0.25000833361112035,1.6071193383246567
0.2520084002800093,1.0328124431240768
0.2540084669488983,1.1561021040776065
0.25600853361778725,1.3611522730009706
0.2580086002866762,1.5488103735590617
0.2600086669555652,1.2957271933607484
0.26200873362445415,1.384769248185189
0.2640088002933431,1.8090558257562375
0.2660088669622321,1.4735908957496295
0.26800893363112105,1.5523427323602714
0.27000900030001,1.5177929960031837
0.2720090669688989,1.5868336457272028
0.2740091336377879,1.2804959450714843
0.27600920030667686,1.2764901472467391
0.2780092669755658,0.8721549937115571
0.2800093336444548,1.259135339009513
0.28200940031334376,1.519620501697236
0.28400946698223273,1.7122042620874784
0.2860095336511217,1.1414278679115548
0.28800960032001066,1.1344704124560565
0.29000966698889963,1.3365898437126844
0.2920097336577886,1.238595247961682
0.29400980032667756,1.0958979984843795
0.29600986699556653,1.3998502929897039
0.2980099336644555,1.1016090953929936
0.3000100003333444,1.5603347847196032
0.3020100670022334,1.1863801960476716
0.30401013367112234,1.1304695826407594
0.3060102003400113,1.0583581505767512
0.3080102670089003,0.9078717904290937
0.31001033367778924,1.218713597543837
0.3120104003466782,1.0915280617235705
0.3140104670155672,1.1180673502060614
0.31601053368445614,0.8908181034839775
0.3180106003533451,1.0582438408285761
0.3200106670222341,0.6584477336168483
0.32201073369112304,1.0453569844315067
0.324010800360012,0.9907638696120608
0.326010867028901,0.9459077933214938
0.3280109336977899,0.9589730898525465
0.33001100036667885,0.6168015130974462
0.3320110670355678,0.7517350971658733
0.3340111337044568,0.48869512297038126
0.33601120037334575,0.758854998694595
0.3380112670422347,0.5750639923409877
0.3400113337111237,1.1415034383903244
0.34201140038001265,0.7499182088897656
0.3440114670489016,0.6478856330581022
0.3460115337177906,0.7804380871445123
0.34801160038667955,0.4842217791791287
0.3500116670555685,0.7793875027238257
0.3520117337244575,0.6698784043752184
0.35401180039334645,0.7253808532213153
0.35601186706223537,0.6567721196784324
0.35801193373112433,0.7979201422038563
0.3600120004000133,0.7998424418514171
0.36201206706890227,0.6745065000414683
0.36401213373779123,0.6082904490404103
0.3660122004066802,0.23223610725747673
0.36801226707556917,0.5110724366411764
0.37001233374445813,0.535726647200296
0.3720124004133471,0.4469450054551979
0.37401246708223607,0.9208347685465963
0.37601253375112503,0.8556349575266011
0.378012600420014,0.15339540581047467
0.38001266708890297,0.5460001509226718
0.38201273375779193,0.5974501147432862
0.38401280042668084,0.2891493181991743
0.3860128670955698,0.41916613724054613
0.3880129337644588,0.24477093928890659
0.39001300043334775,0.017160151809865187
0.3920130671022367,0.02638675932140261
0.3940131337711257,0.21768751431773545
0.39601320044001465,0.08604542855721847
0.3980132671089036,-0.07007934640578845
0.4000133337777926,0.13592362703328248
0.40201340044668155,0.33125416557721127
0.4040134671155705,0.2228063484438214
0.4060135337844595,-0.1601250222911298
0.40801360045334845,0.2982030495080328
0.4100136671222374,0.11563807726107796
0.4120137337911264,0.25608798469976746
0.4140138004600153,-0.060366870213047846
0.41601386712890426,-0.047169156877599566
0.4180139337977932,-0.008183586905199419
0.4200140004666822,-0.21450896271806644
0.42201406713557116,-0.05827722025916006
0.4240141338044601,-0.07990507385210532
0.4260142004733491,0.14660962677299777
0.42801426714223806,0.08978915364049614
0.430014333811127,-0.2681254321467547
0.432014400480016,-0.1010338243789453
0.43401446714890496,-0.184998515165308
0.4360145338177939,-0.30652324605856235
0.4380146004866829,-0.3482512371218069
0.44001466715557186,-0.3955198126430717
0.44201473382446077,-0.6915633963520327
0.44401480049334974,-0.2852870968896953
0.4460148671622387,-0.12806292341763104
0.44801493383112767,-0.29515295743432995
0.45001500050001664,-0.2329458877857398
0.4520150671689056,-0.5609936424135566
0.45401513383779457,-0.20577830625455154
0.45601520050668354,-0.454584965228149
0.4580152671755725,-0.426734190988451
0.46001533384446147,-0.4305027222393684
0.46201540051335044,-0.958417098661011
0.4640154671822394,-0.7010594977736082
0.46601553385112837,-0.4492030396155013
0.46801560052001734,-0.861752294631884
0.47001566718890625,-0.6541494524070467
0.4720157338577952,-0.7260037588054324
0.4740158005266842,-0.6627397666393369
0.47601586719557315,-0.7704498949544524
0.4780159338644621,-0.5858185480661893
0.4800160005333511,-0.9430645835094513
0.48201606720224005,-0.4641290213294778
0.484016133871129,-1.1885587213298674
0.486016200540018,-0.928786074820512
0.48801626720890695,-1.035783765062485
0.4900163338777959,-0.6830897619186713
0.4920164005466849,-0.9161506252455714
0.49401646721557385,-1.1307899671181472
0.4960165338844628,-0.539966280022937
0.49801660055335173,-1.1786908166324959
0.5000166672222407,-0.7658493399073261
0.5020167338911297,-0.7399779262607042
0.5040168005600186,-0.8516564619574806
0.5060168672289076,-0.6128312688898934
0.5080169338977966,-0.9247868821039413
0.5100170005666855,-1.0587904864010234
0.5120170672355745,-0.9662256768953663
0.5140171339044635,-1.2209583969519153
0.5160172005733524,-1.0504004501333528
0.5180172672422414,-0.8562006257985532
0.5200173339111304,-0.8105318959412843
0.5220174005800193,-0.8731682498889309
0.5240174672489083,-1.0457369614853407
0.5260175339177973,-1.0339353242816036
0.5280176005866862,-1.111130677576566
0.5300176672555752,-1.1307399248899717
0.5320177339244642,-1.2809788806201046
0.5340178005933531,-1.29677933755616
0.5360178672622421,-1.5199693131401577
0.5380179339311311,-1.336302036060149
0.54001800060002,-1.1816691503527053
0.5420180672689089,-1.218337733581584
0.5440181339377979,-1.0037735230587446
0.5460182006066868,-1.1120430148147091
0.5480182672755758,-1.0917690106091902
0.5500183339444648,-1.1954236583616387
0.5520184006133537,-1.2969708524230525
0.5540184672822427,-1.2975775057239933
0.5560185339511317,-1.4717165285546474
0.5580186006200206,-1.3090769069268198
0.5600186672889096,-1.2340939465317458
0.5620187339577986,-1.3410160426682876
0.5640188006266875,-1.4893108265604056
0.5660188672955765,-1.4766816452691705
0.5680189339644655,-1.314378770165907
0.5700190006333544,-1.1557199213667364
0.5720190673022434,-1.520135968043543
0.5740191339711324,-1.8528309112794012
0.5760192006400213,-1.2015382492702953
0.5780192673089103,-1.2877370747010561
0.5800193339777993,-1.299189438372857
0.5820194006466882,-1.4919718751784352
0.5840194673155772,-1.0957360511480927
0.5860195339844662,-1.515904272230453
0.5880196006533551,-1.267632953516937
0.5900196673222441,-1.5475674526652987
0.5920197339911331,-1.5812225885455566
0.594019800660022,-1.534792721357301
0.596019867328911,-1.2393299787650003
0.5980199339977998,-1.448267663099215
0.6000200006666888,-1.0491716276686942
0.6020200673355778,-1.412213566947056
0.6040201340044667,-1.3771094482479744
0.6060202006733557,-1.3695748815267954
0.6080202673422447,-1.7936147053031626
0.6100203340111336,-1.614925806760541
0.6120204006800226,-1.4859235042689567
0.6140204673489116,-1.072131213992049
0.6160205340178005,-1.4530150386536416
0.6180206006866895,-1.145480287984672
0.6200206673555785,-1.8262692485804972
0.6220207340244674,-1.3198595082192508
0.6240208006933564,-1.4793811019042462
0.6260208673622454,-1.863862459596852
0.6280209340311343,-1.5123654475340902
0.6300210007000233,-1.6866841566864381
0.6320210673689123,-1.2934734823712093
0.6340211340378012,-1.2359484092034865
0.6360212007066902,-1.3234969760478195
0.6380212673755792,-1.4890713328586294
0.6400213340444681,-1.5347506078903317
0.6420214007133571,-1.6099849039994203
0.6440214673822461,-1.7414572091081164
0.646021534051135,-1.503924801180837
0.648021600720024,-1.5839083132832332
0.650021667388913,-1.4087515842926381
0.652021734057802,-1.6026217396930678
0.6540218007266909,-1.4218930155688305
0.6560218673955798,-1.5984794135069873
0.6580219340644687,-1.7100418168798104
0.6600220007333577,-1.3662998925828085
0.6620220674022467,-1.274786939545477
0.6640221340711356,-1.7151618540148599
0.6660222007400246,-1.3239997887124402
0.6680222674089136,-1.3960295181694138
0.6700223340778025,-1.5631691487579478
0.6720224007466915,-1.4312808367638243
0.6740224674155805,-1.4761963477328761
0.6760225340844694,-1.2931683499250197
0.6780226007533584,-1.5894771506561394
0.6800226674222474,-1.0582883591447687
0.6820227340911363,-1.402202083523916
0.6840228007600253,-1.1553863535384385
0.6860228674289143,-1.048769752970676
0.6880229340978032,-1.4135162808896593
0.6900230007666922,-1.2265820787957393
0.6920230674355812,-1.2269865055761786
0.6940231341044701,-1.5196503239954475
0.6960232007733591,-0.8968756886972911
0.6980232674422481,-1.5349467081720278
0.700023334111137,-1.286171794232011
0.702023400780026,-1.3251988918761601
0.704023467448915,-1.5667136548379146
0.7060235341178039,-1.2658874892734389
0.7080236007866929,-0.8836165728818732
0.7100236674555819,-1.2331035839394942
0.7120237341244707,-1.2373554391618913
0.7140238007933597,-1.1603644895992253
0.7160238674622487,-1.4338519669645409
0.7180239341311376,-0.6737849366995117
0.7200240008000266,-1.5224379635708885
0.7220240674689156,-0.9160635943728745
0.7240241341378045,-0.9808231985594701
0.7260242008066935,-1.3038230425194626
0.7280242674755825,-0.892259144535616
0.7300243341444714,-1.1085331509199108
0.7320244008133604,-0.9427116431026896
0.7340244674822494,-0.6682562585661183
0.7360245341511383,-1.463580027972114
0.7380246008200273,-0.9174088567899206
0.7400246674889163,-1.1499004058892888
0.7420247341578052,-0.750557112817998
0.7440248008266942,-1.0420115444706375
0.7460248674955832,-1.0527351038878003
0.7480249341644721,-1.052398418298476
0.7500250008333611,-0.7748588351077202
0.7520250675022501,-0.7288637451953456
0.754025134171139,-0.19310227791410073
0.756025200840028,-1.0237408822581855
0.758025267508917,-0.8805065235381492
0.7600253341778059,-0.6642966711504859
0.7620254008466949,-0.7483093426635998
0.7640254675155839,-0.9123587338434657
0.7660255341844728,-0.7817496742696752
0.7680256008533617,-0.8573048325300601
0.7700256675222507,-0.41489700349816566
0.7720257341911396,-0.6627722744545901
0.7740258008600286,-0.9986094303868372
0.7760258675289176,-0.7082146607078673
0.7780259341978065,-0.6970958540489411
0.7800260008666955,-1.1941805749045464
0.7820260675355845,-0.695720847453722
0.7840261342044734,-0.23260943701951237
0.7860262008733624,-0.19591287728464013
0.7880262675422514,-0.3385565127240636
0.7900263342111403,-0.2934075683574017
0.7920264008800293,-0.25791629256283355
0.7940264675489183,-0.3548136174429422
0.7960265342178072,-0.21190019004721214
0.7980266008866962,-0.49560674008601047
0.8000266675555852,-0.7064218458006888
0.8020267342244741,-0.5670922116579591
0.8040268008933631,-0.3954251738345626
0.8060268675622521,-0.05696892037255902
0.808026934231141,-0.662881724429692
0.81002700090003,-0.2492835526529968
0.812027067568919,-0.4066007729259352
0.8140271342378079,-0.24568956660398322
0.8160272009066969,-0.24280984139138384
0.8180272675755859,-0.10713104878425152
0.8200273342444748,-0.04038579811004318
0.8220274009133638,-0.20615984444622965
0.8240274675822528,-0.1053210805193797
0.8260275342511416,-0.08725788270041192
0.8280276009200306,-0.17236260727192299
0.8300276675889195,-0.04870583325951619
0.8320277342578085,0.18690668072144445
0.8340278009266975,-0.06598458834413712
0.8360278675955864,0.17213659326244773
0.8380279342644754,0.07301586461821577
0.8400280009333644,0.02859544543405912
0.8420280676022533,0.433407480801542
0.8440281342711423,0.06358258327327063
0.8460282009400313,0.5838838458498166
0.8480282676089202,0.02789005370623268
0.8500283342778092,-0.06909792044741919
0.8520284009466982,-0.2052597007333753
0.8540284676155872,-0.1811981082407903
0.8560285342844761,0.33953209345353963
0.8580286009533651,0.557842028703913
0.860028667622254,0.3090329811279063
0.862028734291143,0.49245534185393725
0.864028800960032,0.028740418134247936
0.866028867628921,0.4285535843323887
0.8680289342978099,0.3434587208620174
0.8700290009666989,0.3517082516435779
0.8720290676355879,0.7324519289938198
0.8740291343044768,0.5646479248510063
0.8760292009733658,0.4443428764466773
0.8780292676422548,0.9876942833979646
0.8800293343111437,0.5100908701956802
0.8820294009800326,0.29606642507302505
0.8840294676489215,0.7004978719877184
0.8860295343178105,0.5378013121151343
0.8880296009866995,0.5226648263013622
0.8900296676555884,0.8979166875789244
0.8920297343244774,0.6558904886705748
0.8940298009933664,0.9859067985524019
0.8960298676622553,0.6507681172963492
0.8980299343311443,0.30444603329425957
0.9000300010000333,0.5231220277847299
0.9020300676689222,0.5772176133599256
0.9040301343378112,0.745390796955739
0.9060302010067002,0.8067164885029711
0.9080302676755891,0.4785943099095495
0.9100303343444781,0.7309691693507723
0.9120304010133671,0.8475539200545749
0.914030467682256,0.8219208977570804
0.916030534351145,0.8422049362507815
0.918030601020034,0.8889242487485244
0.9200306676889229,1.1403116679057956
0.9220307343578119,1.2425965103929768
0.9240308010267009,0.8581800244609057
0.9260308676955898,0.7127653677103775
0.9280309343644788,0.6919214821000641
0.9300310010333678,0.8715469398662143
0.9320310677022567,0.8903655361171186
0.9340311343711457,1.162413692024529
0.9360312010400347,1.190007434115559
0.9380312677089236,0.7888864755718414
0.9400313343778125,1.1722035795695807
0.9420314010467015,1.0085321361055763
0.9440314677155904,0.9000066021542411
0.9460315343844794,0.9603846992240554
0.9480316010533684,1.3043158959918475
0.9500316677222573,1.002148102250444
0.9520317343911463,1.318459781912019
0.9540318010600353,1.228984395521821
0.9560318677289242,1.0459712229951295
0.9580319343978132,1.0759624264365861
0.9600320010667022,1.1424002853165671
0.9620320677355911,1.3034192758580219
0.9640321344044801,1.2650816967925462
0.9660322010733691,1.4365591250129317
0.968032267742258,1.092998534715861
0.970032334411147,1.2013060685768535
0.972032401080036,1.4525416988780395
0.9740324677489249,1.308600815219731
0.9760325344178139,1.7873264961535282
0.9780326010867029,1.5427664545609496
0.9800326677555918,0.9760194502969282
0.9820327344244808,1.3948941178237526
0.9840328010933698,1.4217945561514753
0.9860328677622587,1.2828063941215686
0.9880329344311477,1.4224595300066305
0.9900330011000367,1.3898271214712858
0.9920330677689256,1.3037909500220264
0.9940331344378146,1.479211762603817
0.9960332011067035,1.405078366242925
0.9980332677755924,0.8510262883246822
1.0000333344444814,1.3762342272277517
1.0020334011133705,1.6790252424509886
1.0040334677822593,1.2688627609487226
1.0060335344511484,1.4795224141938823
1.0080336011200373,1.5166560038368146
1.0100336677889263,1.3718346158044268
1.0120337344578152,1.3047034217916489
1.0140338011267043,1.8697855970522606
1.0160338677955931,1.6932923447173365
1.0180339344644822,1.6488085145168354
1.020034001133371,1.324489608510297
1.0220340678022601,1.6151625359018669
1.024034134471149,1.3798236658973597
1.0260342011400378,1.4383295691327975
1.028034267808927,1.6861967991000997
1.0300343344778158,1.5217320143455981
1.0320344011467049,1.3043045001988705
1.0340344678155937,1.8025199834673609
1.0360345344844828,1.4779763415124454
1.0380346011533716,1.5550127523711303
1.0400346678222607,1.4892361027102217
1.0420347344911496,1.4842787323550726
1.0440348011600387,1.4113172637827263
1.0460348678289275,1.7391963196787859
1.0480349344978166,1.5297226298155617
1.0500350011667055,1.4803087876474672
1.0520350678355945,1.5747854179410061
1.0540351345044834,1.6806256502002583
1.0560352011733725,1.7522207895153314
1.0580352678422613,1.6726245305798704
1.0600353345111504,1.4841260418466369
1.0620354011800393,1.7920557885068624
1.0640354678489283,1.8971974497818889
1.0660355345178172,1.3144898413683528
1.0680356011867063,1.4964551631896212
1.0700356678555951,1.269259835936927
1.0720357345244842,1.3111350999493196
1.074035801193373,1.5911188220708952
1.0760358678622621,1.3562802723514416
1.078035934531151,1.5277666740645954
1.08003600120004,1.4356367988123324
1.082036067868929,1.4636109307859504
1.0840361345378178,1.6834324335494533
1.0860362012067069,1.3429604345133048
1.0880362678755957,1.1165618169630371
1.0900363345444848,1.6435804029061125
1.0920364012133736,0.9369988191987766
1.0940364678822627,1.7941818371177707
1.0960365345511516,1.2704617813928156
1.0980366012200407,1.6175656503608464
1.1000366678889295,1.3161601335501045
1.1020367345578186,1.4054416263557086
1.1040368012267074,1.1222435258296148
1.1060368678955965,1.4022335515585231
1.1080369345644854,1.4538428489627049
1.1100370012333745,1.1608876215478923
1.1120370679022633,1.5174116561151947
1.1140371345711524,1.2602075216348279
1.1160372012400412,1.5314374120517236
1.1180372679089303,1.2840768796396953
1.1200373345778192,1.3532184749974334
1.1220374012467083,1.4760840564569828
1.124037467915597,1.265201416342463
1.1260375345844862,1.6793076772704318
1.128037601253375,1.0421041572490766
1.1300376679222641,1.3433376077051171
1.132037734591153,0.8122352145933072
1.134037801260042,1.1001035931519774
1.136037867928931,1.0468665410714988
1.1380379345978198,1.2799292174450092
1.1400380012667088,1.2620679575498372
1.1420380679355977,1.0319303040441596
1.1440381346044868,0.836261571714203
1.1460382012733756,1.2073143534047737
1.1480382679422647,0.8683973654092835
1.1500383346111536,1.0366941883356948
1.1520384012800426,1.147297139251836
1.1540384679489315,0.6729930407068865
1.1560385346178206,0.8596541995869276
1.1580386012867094,0.7856537320042523
1.1600386679555985,1.0800340878909316
1.1620387346244874,0.7011747290735946
1.1640388012933764,0.6762458731568395
1.1660388679622653,0.714853574607248
1.1680389346311544,0.7838061649834962
1.1700390013000432,0.796487620042017
1.1720390679689323,0.8657191424629787
1.1740391346378212,0.8250703116986875
1.1760392013067102,0.6664496496058449
1.178039267975599,0.8571617347221878
1.1800393346444882,0.7617913602295061
1.182039401313377,0.49840300413347827
1.1840394679822661,0.9341664780290138
1.186039534651155,0.9999499794134401
1.188039601320044,0.866286022980101
1.190039667988933,0.6747297693448518
1.192039734657822,0.6418219609206554
1.1940398013267108,0.6419275692435633
1.1960398679955997,0.4228087240069329
1.1980399346644888,0.7760286091895103
1.2000400013333776,0.48376667095498
1.2020400680022667,0.4399005946677327
1.2040401346711556,0.6798388023931091
1.2060402013400446,0.5790571251775163
1.2080402680089335,0.09000442691801641
1.2100403346778226,0.483799861109643
1.2120404013467114,0.5465541932158167
1.2140404680156005,0.09876508783223853
1.2160405346844894,0.395436178065386
1.2180406013533784,0.6440827699248406
1.2200406680222673,0.19563896988287321
1.2220407346911564,0.5373393284121168
1.2240408013600452,0.4705324869267681
1.2260408680289343,0.40619492851925065
1.2280409346978232,0.0607904659261678
1.2300410013667122,0.4726342775122309
1.232041068035601,0.36809569862222635
1.2340411347044902,0.27126524231290394
1.236041201373379,0.16344511133721185
1.238041268042268,0.24010435738199
1.240041334711157,0.02529489440255414
1.242041401380046,0.03599846624033684
1.244041468048935,0.19258364567512812
1.246041534717824,0.4345463771068491
1.2480416013867128,-0.07202165656250031
1.250041668055602,0.2558633721320528
1.2520417347244908,-0.1947499949027615
1.2540418013933796,-0.13308974702679754
1.2560418680622687,-0.14524086028189304
1.2580419347311576,0.352431290712958
1.2600420014000466,-0.1887196434657139
1.2620420680689355,-0.23073385530192073
1.2640421347378246,0.30137679772545667
1.2660422014067134,-0.4663405900760391
1.2680422680756025,0.04335696519810833
1.2700423347444914,-0.06854267376845172
1.2720424014133804,-0.43998288914267514
1.2740424680822693,-0.21736965198226063
1.2760425347511584,-0.26468487695378223
1.2780426014200472,-0.35626441622969285
1.2800426680889363,-0.22076830806909414
1.2820427347578252,-0.7727800656708801
1.2840428014267142,-0.34150890231072084
1.286042868095603,-1.189681547192758
1.2880429347644922,-0.404520159452875
1.290043001433381,-0.1675517276620621
1.29204306810227,-0.5111524277470616
1.294043134771159,-0.9429177053013807
1.296043201440048,-0.5847796181172779
1.2980432681089369,-0.7340041420433716
1.300043334777826,-0.17049746114303632
1.3020434014467148,-0.2626351039955459
1.304043468115604,-0.30033908859027464
1.3060435347844928,-0.5530560506978843
1.3080436014533818,-0.1584777435618573
1.3100436681222707,-0.5144736788272184
1.3120437347911595,-0.6500362361538881
1.3140438014600486,-0.7537310451027641
1.3160438681289375,-0.738263672168108
1.3180439347978266,-0.4151454385269085
1.3200440014667154,-0.2948022536828746
1.3220440681356045,-0.49928171427187684
1.3240441348044933,-1.0986313644118488
1.3260442014733824,-0.587124937011682
1.3280442681422713,-0.4933902168776907
1.3300443348111604,-0.9184521470385526
1.3320444014800492,-0.6736217240228648
1.3340444681489383,-0.8827039210922923
1.3360445348178271,-0.7218557042363035
1.3380446014867162,-1.1173437117438878
1.340044668155605,-1.187762857821376
1.3420447348244942,-1.0006426844079932
1.344044801493383,-1.0596080697627013
1.346044868162272,-0.6892570703624559
1.348044934831161,-0.9988830250612931
1.35004500150005,-1.3525191127027636
1.3520450681689389,-1.2116288393059333
1.354045134837828,-0.8613428639107048
1.3560452015067168,-1.5208949081757905
1.358045268175606,-0.869713949313144
1.3600453348444947,-0.9898013675798587
1.3620454015133838,-1.0668253149508664
1.3640454681822727,-1.320452729464673
1.3660455348511615,-0.8386180314895633
1.3680456015200506,-1.5951486800382533
1.3700456681889395,-0.8653577518100888
1.3720457348578285,-1.0207990740102817
1.3740458015267174,-1.3430584535717298
1.3760458681956065,-0.9800881342330034
1.3780459348644953,-1.3799749171210824
1.3800460015333844,-0.9153604328174785
1.3820460682022733,-1.3234253772423212
1.3840461348711623,-1.2812279480069502
1.3860462015400512,-1.4700659280212078
1.3880462682089403,-1.4896915475354295
1.3900463348778291,-1.242141670836804
1.3920464015467182,-1.3037929738186178
1.394046468215607,-1.6891821321272997
1.3960465348844961,-1.3554492717585294
1.398046601553385,-1.0194595128584256
1.400046668222274,-1.3537956432054579
1.402046734891163,-1.317788603703591
1.404046801560052,-1.814749798412301
1.4060468682289409,-1.23392449143402
1.40804693489783,-1.3229124073841398
1.4100470015667188,-1.1833630114527394
1.4120470682356079,-1.4072041111157976
1.4140471349044967,-1.6747052732518746
1.4160472015733858,-1.6395675968993415
1.4180472682422747,-2.058402141179773
1.4200473349111637,-1.6675436361300964
1.4220474015800526,-1.684083854086815
1.4240474682489415,-1.4897598432859784
1.4260475349178305,-1.3030230391178403
1.4280476015867194,-1.4876116251756983
1.4300476682556085,-1.9124063834412568
1.4320477349244973,-1.3506954889415728
1.4340478015933864,-1.51881230127034
1.4360478682622753,-1.4731651652370306
1.4380479349311643,-1.4028678006005522
1.4400480016000532,-1.9139316802390907
1.4420480682689423,-1.6776407091878272
1.4440481349378311,-1.4395533378197778
1.4460482016067202,-1.7751005250519134
1.448048268275609,-1.1641241176065318
1.4500483349444981,-1.3977773745510225
1.452048401613387,-1.07200355880081
1.454048468282276,-1.0366170382789885
1.456048534951165,-1.451751885944697
1.458048601620054,-1.742289153833652
1.4600486682889429,-1.4550454601436973
1.462048734957832,-1.6589226686389398
1.4640488016267208,-1.4539823527301157
1.4660488682956099,-1.7028994059881677
1.4680489349644987,-1.2924879979710138
1.4700490016333878,-1.5894061934944552
1.4720490683022767,-1.5402657524942218
1.4740491349711657,-1.6412455482879769
1.4760492016400546,-1.959778708465708
1.4780492683089437,-1.4480798399355148
1.4800493349778325,-1.648350973668334
1.4820494016467214,-1.5706240190561056
1.4840494683156105,-1.4467706338001962
1.4860495349844993,-1.3677174577609974
1.4880496016533884,-1.6535509459615607
1.4900496683222773,-1.4695130823562732
1.4920497349911663,-1.5952210132357973
1.4940498016600552,-1.3662329957334722
1.4960498683289443,-1.4508093566866975
1.4980499349978331,-1.2043168295428563
1.5000500016667222,-1.3594103948539684
1.502050068335611,-1.1025012404487091
1.5040501350045001,-1.6515172082125145
1.506050201673389,-1.614847635230709
1.508050268342278,-1.3079365023301386
1.510050335011167,-1.440788105463992
1.512050401680056,-1.5585338140197975
1.5140504683489449,-1.4205757188689279
1.516050535017834,-1.436447297047231
1.5180506016867228,-1.6266342654555774
1.5200506683556119,-1.6491144486785514
1.5220507350245007,-1.4373087046521345
1.5240508016933898,-1.1209597927274408
1.5260508683622787,-1.2733065519694828
1.5280509350311677,-1.293979818582764
1.5300510017000566,-1.41944574358931
1.5320510683689457,-0.868383149299512
1.5340511350378345,-1.0573849596475444
1.5360512017067234,-1.3995860139701488
1.5380512683756125,-1.1903407637707546
1.5400513350445013,-1.6431790115024638
1.5420514017133904,-1.0059613462067694
1.5440514683822792,-1.4339585041656044
1.5460515350511683,-1.4092009214065377
1.5480516017200572,-1.211303158340294
1.5500516683889463,-1.3541838802351935
1.5520517350578351,-1.181721981153321
1.5540518017267242,-1.222327824072348
1.556051868395613,-1.5138912656351522
1.5580519350645021,-1.164724237372882
1.560052001733391,-0.6736874871585892
1.56205206840228,-1.197283578345789
1.564052135071169,-1.17891915381254
1.566052201740058,-0.9872821997929974
1.5680522684089468,-0.8271060412208779
1.570052335077836,-1.1642245074308615
1.5720524017467248,-1.2500888048922358
1.5740524684156139,-1.2447089309685009
1.5760525350845027,-1.2355297418064706
1.5780526017533918,-0.8408563018740076
1.5800526684222806,-0.9171847575886511
1.5820527350911697,-1.128267152598843
1.5840528017600586,-0.6770943640481806
1.5860528684289477,-0.9474330459108549
1.5880529350978365,-0.7845858962612998
1.5900530017667256,-0.9693308017244083
1.5920530684356144,-0.770140991795371
1.5940531351045033,-0.9678326785139281
1.5960532017733924,-0.9992088548486708
1.5980532684422812,-0.4767186075901088
1.6000533351111703,-1.2117501814677827
1.6020534017800592,-1.00101890921957
1.6040534684489482,-0.7454519002355184
1.606053535117837,-0.8795004388875536
1.6080536017867262,-0.811563363523095
1.610053668455615,-0.3671031302546582
1.6120537351245041,-0.5969304681245696
1.614053801793393,-0.138925786561718
1.616053868462282,-0.2745474506547437
1.618053935131171,-0.5231667828904759
1.62005400180006,-0.25044296976351943
1.6220540684689488,-0.6284040389790264
1.624054135137838,-0.7099495313356077
1.6260542018067268,-0.36058728113700206
1.6280542684756159,-0.20183499187764026
1.6300543351445047,-0.4095954420839866
1.6320544018133938,-0.3716684453201226
1.6340544684822826,-0.3508098664285093
1.6360545351511717,-0.22914946552088905
1.6380546018200606,-0.4504864927767833
1.6400546684889497,-0.2905641580821351
1.6420547351578385,-0.3369295348591642
1.6440548018267276,-0.10226621203670647
1.6460548684956164,0.060404438533486565
1.6480549351645055,-0.12997872329312438
1.6500550018333944,0.014003768341916994
1.6520550685022832,-0.5240584200950689
1.6540551351711723,-0.2990923342712932
1.6560552018400612,-0.21749319575315376
1.6580552685089502,0.22573237414197794
1.660055335177839,-0.03529506573538392
1.6620554018467282,0.1429710147845757
1.664055468515617,-0.1528643705872655
1.666055535184506,-0.39401564573006614
1.668055601853395,-0.00623727781696452
1.670055668522284,-0.143065396659511
1.672055735191173,0.24029884211214775
1.674055801860062,0.456572353843285
1.6760558685289508,-0.024692472375979282
1.67805593519784,0.17165177341805027
1.6800560018667288,-0.09795492498762931
1.6820560685356178,-0.18858914006366612
1.6840561352045067,0.21116338734193796
1.6860562018733958,0.2661665954806217
1.6880562685422846,0.24085550548526938
1.6900563352111737,0.12480384876265427
1.6920564018800626,0.2730913655598749
1.6940564685489516,0.15540614901564326
1.6960565352178405,0.10215625352798757
1.6980566018867296,0.2460705759634505
1.7000566685556184,0.3286460977253022
1.7020567352245075,0.49274797936516296
1.7040568018933964,0.6298032887242374
1.7060568685622854,0.7437740655157644
1.7080569352311743,0.5148093965823894
1.7100570019000632,0.7759649844374845
1.7120570685689522,0.43479661018888177
1.714057135237841,0.17830936333858394
1.7160572019067302,0.6449317934242853
1.718057268575619,0.6454863915896449
1.720057335244508,0.2903662944934899
1.722057401913397,0.36196630321616996
1.724057468582286,0.4060490323201079
1.726057535251175,0.5458020095579368
1.728057601920064,0.8966728245219154
1.7300576685889528,0.590274029323891
1.732057735257842,0.5131047767307261
1.7340578019267308,0.8943284717609349
1.7360578685956198,0.791505615207078
1.7380579352645087,0.713128903211844
1.7400580019333978,0.9299355672087486
1.7420580686022866,0.9089193602497392
1.7440581352711757,0.7665921743971752
1.7460582019400646,0.6943361172195753
1.7480582686089536,1.1570773126648186
1.7500583352778425,0.9991550704232613
1.7520584019467316,0.6001637919605161
1.7540584686156204,0.8215064753538478
1.7560585352845095,0.6466865798117769
1.7580586019533984,0.6762001698191147
1.7600586686222874,0.8967910246571043
1.7620587352911763,0.9429077993927507
1.7640588019600651,1.0137688172641623
1.7660588686289542,1.324500345439992
1.768058935297843,1.1353781250285269
1.7700590019667322,1.2122863049783592
1.772059068635621,0.786349620093695
1.77405913530451,1.1384624131574979
1.776059201973399,0.7790438787568985
1.778059268642288,1.670615556392962
1.7800593353111769,1.0014244179158243
1.782059401980066,0.9245757865352062
1.7840594686489548,0.8882485230670922
1.786059535317844,1.2641731940007612
1.7880596019867327,1.0076469862852107
1.7900596686556218,1.2145687332708002
1.7920597353245107,1.4141737653205304
1.7940598019933998,1.0902754197026754
1.7960598686622886,1.208566753282857
1.7980599353311777,1.032988035734036
1.8000600020000666,1.471665783672346
1.8020600686689556,1.5269308110583828
1.8040601353378445,1.2697817845738026
1.8060602020067336,1.3982412422479231
1.8080602686756224,1.1251212327324982
1.8100603353445115,1.3533369328899225
1.8120604020134004,1.6168842463070134
1.8140604686822894,1.249360962428447
1.8160605353511783,1.159013501771848
1.8180606020200674,1.566903684654096
1.8200606686889562,1.848493562699709
1.822060735357845,0.9595538438402178
1.8240608020267342,1.4176764146219427
1.826060868695623,1.523859425315531
1.828060935364512,1.2389255939781276
1.830061002033401,1.095575013577882
1.83206106870229,1.2359927868243692
1.8340611353711789,1.5099363633663243
1.836061202040068,1.3933669370108033
1.8380612687089568,1.4738601050748519
1.8400613353778459,1.7524865196480164
1.8420614020467347,1.704391405782355
1.8440614687156238,1.1315686300626377
1.8460615353845127,1.4522056006810045
1.8480616020534018,1.1692100046805427
1.8500616687222906,1.402453327471845
1.8520617353911797,1.6068989710899395
1.8540618020600685,1.176257446415003
1.8560618687289576,1.5437651418024199
1.8580619353978465,1.4446268313605615
1.8600620020667356,1.5198963853454286
1.8620620687356244,1.526773789416548
1.8640621354045135,1.376497527801243
1.8660622020734023,1.5095877103432156
1.8680622687422914,1.414377793073747
1.8700623354111803,1.5821667006552358
1.8720624020800694,1.6749735992442396
1.8740624687489582,1.6623178212144567
1.8760625354178473,1.544109964656312
1.8780626020867361,1.902963081992765
1.880062668755625,1.504857765907575
1.882062735424514,1.3631548745797184
1.884062802093403,1.3706885026307607
1.886062868762292,1.4979190122422623
1.8880629354311809,1.1211191782843268
1.89006300210007,1.501069444899426
1.8920630687689588,1.3883937939684214
1.8940631354378479,0.9197407712272776
1.8960632021067367,1.5183339236689841
1.8980632687756258,1.4606231786122859
1.9000633354445147,1.2878120517056564
1.9020634021134037,1.3964824126340223
1.9040634687822926,1.4049781411811915
1.9060635354511817,1.242298185151521
1.9080636021200705,1.9566047532497217
1.9100636687889596,1.5514934968581326
1.9120637354578485,1.2558007741766737
1.9140638021267375,1.467979221965943
1.9160638687956264,1.3830049754830847
1.9180639354645155,1.5634971433195861
1.9200640021334043,1.401580873235138
1.9220640688022934,1.0457277099555693
1.9240641354711823,1.4784003051945849
1.9260642021400713,0.9520241125440767
1.9280642688089602,1.2311773307912302
1.9300643354778493,1.502422811158232
1.9320644021467381,1.7198677392232717
1.9340644688156272,1.323936949030815
1.936064535484516,1.513442354369146
1.938064602153405,1.1898136566084467
1.940064668822294,1.4177578289337838
1.9420647354911829,1.3185848795287356
1.944064802160072,1.1796792608709312
1.9460648688289608,1.5005253522264095
1.9480649354978499,1.569664028680746
1.9500650021667387,1.5311227374549996
1.9520650688356278,1.2762864076424618
1.9540651355045167,0.9657566390000197
1.9560652021734057,1.1808655667322365
1.9580652688422946,1.0177516119162404
1.9600653355111837,0.9986733768692986
1.9620654021800725,1.3003435808521595
1.9640654688489616,1.4121019869299214
1.9660655355178505,0.9277392675423446
1.9680656021867395,1.222684439640484
1.9700656688556284,1.4247589664003146
1.9720657355245175,1.028807799134514
1.9740658021934063,1.110489527247879
1.9760658688622954,0.8519850241301319
1.9780659355311843,0.8678313327598404
1.9800660022000733,1.1419597427536095
1.9820660688689622,1.0236490642579097
1.9840661355378513,1.160348855278146
1.9860662022067401,1.1012123275994752
1.9880662688756292,1.5657284665951607
1.990066335544518,1.021198955552395
1.992066402213407,0.8249009975422303
1.994066468882296,0.6251585677382361
1.9960665355511849,0.8843882860250682
1.998066602220074,0.7875721274013244
2.000066668888963,1.0906860496283048
2.0020667355578516,0.7358808131377106
2.004066802226741,1.29823236403021
2.00606686889563,0.7366009372365266
2.0080669355645187,0.5683565530195388
2.0100670022334075,0.33473659123529476
2.012067068902297,0.7132424451814556
2.0140671355711857,0.8502981415839488
2.0160672022400745,0.5984198784498928
2.0180672689089634,0.6703975004906744
2.0200673355778527,0.6543512031343838
2.0220674022467415,0.6522164713306571
2.0240674689156304,0.9462533602087673
2.0260675355845192,0.2932247173219861
2.0280676022534085,0.8178666959172898
2.0300676689222974,0.6377654937380252
2.0320677355911863,0.4591014877191733
2.034067802260075,0.5450497087668876
2.0360678689289644,0.5362002390402844
2.0380679355978533,0.17068676966239632
2.040068002266742,0.08300809671735243
2.042068068935631,0.3931016377161667
2.0440681356045203,0.5564664725173113
2.046068202273409,0.674367494020861
2.048068268942298,0.3601868655700365
2.050068335611187,0.5721184856247549
2.0520684022800757,0.5038929859992987
2.054068468948965,0.6143543879844493
2.056068535617854,0.14427778318801554
2.0580686022867427,0.012405531553325133
2.0600686689556316,0.21922111935513364
2.062068735624521,0.15765633595159453
2.0640688022934097,0.11869899565139715
2.0660688689622986,0.20430824448553142
2.0680689356311874,-0.17242410872201183
2.0700690023000767,-0.3453060955696605
2.0720690689689656,0.36099193587461764
2.0740691356378544,0.3182650120769415
2.0760692023067433,-0.01338935015439044
2.0780692689756326,0.025686559949530285
2.0800693356445215,-0.10261184658785488
2.0820694023134103,0.2015466599730139
2.084069468982299,-0.3157539632721898
2.0860695356511885,-0.17608074931231277
2.0880696023200773,0.2550556972445368
2.090069668988966,0.2196556302468439
2.092069735657855,-0.2321769356662718
2.0940698023267443,-0.1510451630315987
2.096069868995633,-0.03889259741642309
2.098069935664522,-0.3179181042446495
2.100070002333411,-0.16682077293302353
2.1020700690023,-0.14409265816640815
2.104070135671189,-0.5791327048030892
2.106070202340078,0.010362339319009817
2.1080702690089668,-0.5506644240394789
2.1100703356778556,-0.4089605101288647
2.112070402346745,-0.03719068443455564
2.114070469015634,-0.4931892328240067
2.1160705356845226,-0.4021323017317858
2.1180706023534115,-0.35649719700143523
2.120070669022301,-0.4004136411030406
2.1220707356911896,-0.058759812835086245
2.1240708023600785,-0.739320618436552
2.1260708690289674,-0.6591013772370072
2.1280709356978567,-0.590981893090233
2.1300710023667455,-0.498707281627424
2.1320710690356344,-0.4800559226247673
2.1340711357045232,-0.7228517189335318
2.1360712023734125,-0.47292455820914014
2.1380712690423014,-0.39756662347719807
2.1400713357111902,-0.8780335136714572
2.142071402380079,-0.7988028802040773
2.1440714690489684,-1.0818503792868446
2.1460715357178572,-0.9325328772439156
2.148071602386746,-0.5510614352185628
2.150071669055635,-0.6845548572452992
2.1520717357245243,-0.6594368814058199
2.154071802393413,-1.2161393812971302
2.156071869062302,-0.617615128307007
2.158071935731191,-0.822185890119365
2.16007200240008,-0.7131889922279795
2.162072069068969,-0.6970864244207547
2.164072135737858,-0.8540727018901064
2.1660722024067467,-0.5920650916613808
2.1680722690756355,-0.7453324461078294
2.170072335744525,-0.5124440736840188
2.1720724024134137,-0.8845586789417382
2.1740724690823026,-0.9768710384203978
2.1760725357511914,-1.1863299946305754
2.1780726024200807,-0.9546079808359673
2.1800726690889696,-1.250122681205952
2.1820727357578584,-1.3317640441593932
2.1840728024267473,-1.335449615980387
2.1860728690956366,-1.1567945432199518
2.1880729357645254,-1.0781185577517585
2.1900730024334143,-1.1536115167136598
2.192073069102303,-0.756174644665979
2.1940731357711925,-1.2656347917041515
2.1960732024400813,-1.3110455062732007
2.19807326910897,-1.4253847983639618
2.200073335777859,-1.2701123437421702
2.2020734024467483,-1.2017496197534931
2.204073469115637,-1.1532389261107192
2.206073535784526,-1.701583875313113
2.208073602453415,-1.0504664456828898
2.210073669122304,-1.1303439422178316
2.212073735791193,-0.9617605352515651
2.214073802460082,-1.4616427765961237
2.2160738691289708,-0.967886329434475
2.21807393579786,-1.1817093661974878
2.220074002466749,-1.4466651968760982
2.2220740691356378,-1.5509334229412588
2.2240741358045266,-0.9972796702128037
2.2260742024734155,-1.175029592007607
2.2280742691423048,-1.5940415605748313
2.2300743358111936,-1.492372400005343
2.2320744024800825,-1.2678527168697993
2.2340744691489713,-1.5563300435056144
2.2360745358178606,-1.4278876843522947
2.2380746024867495,-1.362395169308788
2.2400746691556384,-1.4705644719609907
2.242074735824527,-1.4259394063928883
2.2440748024934165,-1.3220107315186538
2.2460748691623054,-1.7154288875180383
2.248074935831194,-1.829616492807231
2.250075002500083,-1.590272378655178
2.2520750691689724,-1.2535702481614153
2.2540751358378612,-1.3405095995347296
2.25607520250675,-1.3276615272027836
2.258075269175639,-1.3481841285587928
2.2600753358445282,-1.4624385112759437
2.262075402513417,-1.5496065736704971
2.264075469182306,-1.4593198046747722
2.266075535851195,-1.2679606077423151
2.268075602520084,-1.5570017348873721
2.270075669188973,-1.6490166064551768
2.272075735857862,-1.4342381346097364
2.2740758025267507,-1.5004328844605588
2.2760758691956395,-1.4304513419973621
2.278075935864529,-1.2860645346556918
2.2800760025334177,-1.6020384388427453
2.2820760692023065,-1.314595753433465
2.2840761358711954,-1.1941259421768957
2.2860762025400847,-1.8055110886460346
2.2880762692089736,-1.4756837343080127
2.2900763358778624,-1.0210229083846276
2.2920764025467513,-1.6016285033890043
2.2940764692156406,-1.3647226980694458
2.2960765358845294,-1.7320192462376458
2.2980766025534183,-1.7096623417654726
2.300076669222307,-1.5041415756500867
2.3020767358911964,-1.5672407741591148
2.3040768025600853,-1.6459484640244784
2.306076869228974,-1.577590352260246
2.308076935897863,-1.454553571573757
2.3100770025667523,-1.6195544933024166
2.312077069235641,-1.7761348714998204
2.31407713590453,-1.4759611183998098
2.316077202573419,-1.3343932898459394
2.318077269242308,-1.2876436010754722
2.320077335911197,-1.1823696804655894
2.322077402580086,-1.2866738910587512
2.3240774692489747,-1.5613288279794835
2.326077535917864,-1.8523380922903288
2.328077602586753,-1.0604561094725264
2.3300776692556417,-1.4972870681147237
2.3320777359245306,-1.2464022189226347
2.3340778025934195,-1.6034623087887416
2.3360778692623088,-1.122171965184745
2.3380779359311976,-1.2803392516833174
2.3400780026000865,-1.5689435152769156
2.3420780692689753,-1.4628819122375392
2.3440781359378646,-1.3804042882346566
2.3460782026067535,-1.6212751189269456
2.3480782692756423,-1.3035156773458318
2.350078335944531,-1.1542363320083282
2.3520784026134205,-1.6485310805077753
2.3540784692823093,-1.538580830093518
2.356078535951198,-1.5222639373767288
2.358078602620087,-1.485979472132834
2.3600786692889764,-1.0680092915344033
2.362078735957865,-1.3852549273474806
2.364078802626754,-1.0424419460114636
2.366078869295643,-1.5322586794653403
2.3680789359645322,-1.2374992481502598
2.370079002633421,-0.9984634661150739
2.37207906930231,-1.0597943636753193
2.374079135971199,-0.8356936479900745
2.376079202640088,-1.1618732851520266
2.378079269308977,-0.7575923075278821
2.380079335977866,-1.3350800905061557
2.3820794026467547,-1.2884398161701909
2.384079469315644,-1.1330893920004195
2.386079535984533,-1.2254048902460235
2.3880796026534217,-1.1241688737699178
2.3900796693223105,-0.8779030648332022
2.3920797359911994,-0.8394580417037611
2.3940798026600887,-1.3089468433179605
2.3960798693289775,-1.1541209690156262
2.3980799359978664,-1.0931558148660858
2.4000800026667553,-1.0640877001158722
2.4020800693356446,-1.3568422235559754
2.4040801360045334,-0.7508279346526068
2.4060802026734223,-0.8108927395907641
2.408080269342311,-0.7214908662279125
2.4100803360112004,-1.3955625381030465
2.4120804026800893,-1.0285264778792755
2.414080469348978,-0.3903637701955932
2.416080536017867,-1.0941993745331584
2.4180806026867563,-0.8488334274454549
2.420080669355645,-1.0992285001129414
2.422080736024534,-1.0184562044091459
2.424080802693423,-0.8582157292853267
2.426080869362312,-0.9349931572545467
2.428080936031201,-0.8686841816944028
2.43008100270009,-0.6133220152245873
2.4320810693689787,-0.6272829476374876
2.434081136037868,-0.8410086722260539
2.436081202706757,-0.6803572374581331
2.4380812693756457,-0.7028030359890702
2.4400813360445346,-0.4738905311441298
2.442081402713424,-0.8497030480333775
2.4440814693823127,-0.6537580228963814
2.4460815360512016,-0.38606749208355806
2.4480816027200905,-0.8038379085366496
2.4500816693889793,-0.6918697561296667
2.4520817360578686,-0.3204353909957677
2.4540818027267575,-0.48520650145277416
2.4560818693956463,-0.5914385033177174
2.458081936064535,-0.20040071206357496
2.4600820027334245,-0.6150425001297859
2.4620820694023133,-0.7413894626236754
2.464082136071202,-0.38235997679110323
2.466082202740091,-0.4699292742001052
2.4680822694089803,-0.38394401115197196
2.470082336077869,-0.6749097473857801
2.472082402746758,-0.6267460386256434
2.474082469415647,-0.4729327136415543
2.476082536084536,-0.039392852276280865
2.478082602753425,-0.2347205200938948
2.480082669422314,0.0030566231782135356
2.482082736091203,-0.29481724706734425
2.484082802760092,-0.3276569984601072
2.486082869428981,-0.2155719162870973
2.48808293609787,-0.011537593248838796
2.4900830027667586,-0.12254018538530977
2.492083069435648,-0.10761230582373146
2.494083136104537,0.2038454471435231
2.4960832027734257,-0.517675979480337
2.4980832694423145,0.13216087313246433
2.500083336111204,-0.5229797218657258
2.5020834027800927,-0.17707120283686964
2.5040834694489815,-0.0354490138726626
2.5060835361178704,-0.16717671358418426
2.5080836027867592,0.05629998506642972
2.5100836694556485,-0.13239124464023877
2.5120837361245374,-0.3356192488603206
2.5140838027934262,0.34654446671019906
2.516083869462315,0.23724387348545523
2.5180839361312044,0.040201001898442945
2.5200840028000933,0.27953457871660137
2.522084069468982,0.29714698723731436
2.524084136137871,0.06294919840137694
2.5260842028067603,0.23844053954179456
2.528084269475649,-0.35123093606264033
2.530084336144538,0.16865662906514414
2.532084402813427,0.3771434878873189
2.534084469482316,0.39388403707648156
2.536084536151205,0.3674407579598326
2.538084602820094,0.2793313360255617
2.5400846694889827,0.45556095561095844
2.542084736157872,0.0601317094744489
2.544084802826761,0.34909937439518063
2.5460848694956497,0.373114248255892
2.5480849361645386,0.40469723727451545
2.550085002833428,0.4823842067649197
2.5520850695023167,0.6549750936810307
2.5540851361712056,0.46892463594613376
2.5560852028400944,0.6085390407876659
2.5580852695089837,0.8106645906621391
2.5600853361778726,0.8882266028570874
2.5620854028467615,0.6557004793529828
2.5640854695156503,0.8735472398169762
2.566085536184539,0.8515130667876217
2.5680856028534285,0.8571198593463946
2.5700856695223173,0.8746221765498462
2.572085736191206,0.8835879463541974
2.574085802860095,0.965229818176161
2.5760858695289843,0.8175072215136181
2.578085936197873,0.4608208001077909
2.580086002866762,0.6277035050815034
2.582086069535651,0.5943562607964366
2.58408613620454,1.0009014228252353
2.586086202873429,1.2870007250454247
2.588086269542318,0.8624658764125059
2.5900863362112068,0.9261899231463315
2.592086402880096,1.0045732241933438
2.594086469548985,0.5684190209116348
2.5960865362178738,1.1343593700910561
2.5980866028867626,1.047861093315752
2.600086669555652,0.6380752344228799
2.602086736224541,0.42128430584530296
2.6040868028934296,1.1407018932537987
2.6060868695623185,0.6791312705702612
2.608086936231208,1.1240285864055122
2.6100870029000967,1.184836325715672
2.6120870695689855,1.4054683177048524
2.6140871362378744,0.9997355008644343
2.6160872029067637,1.1072249414008584
2.6180872695756525,1.3313181095355449
2.6200873362445414,1.0091609234709824
2.6220874029134302,1.279227624975202
2.624087469582319,1.2487735313637192
2.6260875362512084,0.8784544635074281
2.6280876029200972,1.247652534854214
2.630087669588986,1.1512089093897848
2.632087736257875,1.429682104314691
2.6340878029267643,1.2806518584769904
2.636087869595653,1.253080384509485
2.638087936264542,1.3874970784074614
2.640088002933431,1.2185733982011597
2.64208806960232,1.4372918848652265
2.644088136271209,1.3707900175899441
2.646088202940098,1.3114230257525057
2.6480882696089867,1.4549053574740862
2.650088336277876,1.2820676206402628
2.652088402946765,1.5178395638906506
2.6540884696156537,1.7391287460347187
2.6560885362845426,1.3811506086411292
2.658088602953432,1.3650921469252093
2.6600886696223207,1.0151370042434746
2.6620887362912096,1.4613075586904092
2.6640888029600984,1.480623572565652
2.6660888696289877,1.449906396872717
2.6680889362978766,1.4190234428736526
2.6700890029667654,1.5744967352662216
2.6720890696356543,1.5836400688426144
2.674089136304543,1.2827053114876477
2.6760892029734324,1.7935828240784162
2.6780892696423213,1.34154898913992
2.68008933631121,1.6351245769328187
2.682089402980099,1.3856655066766546
2.6840894696489883,1.6089121733105871
2.686089536317877,1.6539815847183648
2.688089602986766,1.5676318373921894
2.690089669655655,1.4431198418339959
2.692089736324544,1.9960155938697037
2.694089802993433,1.72495430054208
2.696089869662322,1.5362316054452376
2.6980899363312107,1.2556466709057277
2.7000900030001,1.3435537827762518
2.702090069668989,1.6373525696531024
2.7040901363378778,1.6278052848393871
2.7060902030067666,1.3966308767407343
2.708090269675656,1.149404883542607
2.7100903363445448,1.1124883141836988
2.7120904030134336,1.5070837790177807
2.7140904696823225,1.5335761730731094
2.716090536351212,1.488001836916169
2.7180906030201006,1.3542240891214354
2.7200906696889895,1.4974033992057205
2.7220907363578783,1.3860350010108902
2.7240908030267676,1.5958819186592597
2.7260908696956565,1.5670133943997357
2.7280909363645454,1.5237817928919668
2.730091003033434,1.206145340438293
2.732091069702323,1.2688650586596113
2.7340911363712124,1.75646434252431
2.7360912030401012,1.3577323754180095
2.73809126970899,1.0094225645829287
2.740091336377879,1.1294022111738087
2.7420914030467682,1.1606774261529358
2.744091469715657,1.3501937244868485
2.746091536384546,1.7947096922708157
2.748091603053435,1.448618618070614
2.750091669722324,1.5886915975382576
2.752091736391213,1.2008831398028534
2.754091803060102,1.3736963288690636
2.7560918697289907,1.4634718487740466
2.75809193639788,1.441602367054513
2.760092003066769,1.6991843676523715
2.7620920697356577,1.3791711772532296
2.7640921364045465,1.5590944261983206
2.766092203073436,1.4295349815110299
2.7680922697423247,1.5315682834465107
2.7700923364112136,1.3549268809741954
2.7720924030801024,1.5059871228478632
2.7740924697489917,1.6002503419374015
2.7760925364178806,1.1455475589366955
2.7780926030867694,1.2165066615870184
2.7800926697556583,1.7986201777254147
2.7820927364245476,1.2069273522419337
2.7840928030934364,0.8257507863963003
2.7860928697623253,1.1938191260771247
2.788092936431214,0.9850778402334981
2.790093003100103,0.8757202326677981
2.7920930697689923,1.082256002334204
2.794093136437881,0.9432130142874877
2.79609320310677,1.5140592124315548
2.798093269775659,1.297804081989098
2.800093336444548,1.2475244162812091
2.802093403113437,1.2386899908416844
2.804093469782326,1.0284230386508326
2.8060935364512147,1.0784991384253828
2.808093603120104,1.1308683466385934
2.810093669788993,1.2240354109855576
2.8120937364578817,0.6995674935722533
2.8140938031267706,0.9955709829751291
2.81609386979566,0.8664161956459048
2.8180939364645488,0.4944431880208616
2.8200940031334376,0.8292953780013342
2.8220940698023265,0.6916369196238252
2.8240941364712158,1.0083501865749382
2.8260942031401046,0.6811107796389051
2.8280942698089935,1.005904830643039
2.8300943364778823,0.7139182932082317
2.8320944031467716,0.813580306421681
2.8340944698156605,1.1520660753712408
2.8360945364845493,0.6355500742151615
2.838094603153438,0.9510008193006734
2.8400946698223275,0.6691854463860776
2.8420947364912164,0.6446101882272789
2.844094803160105,0.9038393436757896
2.846094869828994,0.7336681287286115
2.848094936497883,0.6107158271637142
2.8500950031667722,0.6798501420682244
2.852095069835661,0.8327027003806207
2.85409513650455,0.6569766516258951
2.856095203173439,0.6641543858276929
2.858095269842328,0.6542783199907078
2.860095336511217,0.5798617664962917
2.862095403180106,0.8488590796630087
2.8640954698489947,0.30840486018701685
2.866095536517884,0.28777410932381264
2.868095603186773,0.9475857221904413
2.8700956698556617,0.6302530558866636
2.8720957365245505,0.5208374968452867
2.87409580319344,0.6111511352990782
2.8760958698623287,0.05598160852787204
2.8780959365312175,0.583542844391448
2.8800960032001064,0.34060390419680153
2.8820960698689957,0.6858106602967949
2.8840961365378845,0.2408469882150119
2.8860962032067734,0.5429358697831992
2.8880962698756623,0.22743319757595024
2.8900963365445516,0.12441120434155156
2.8920964032134404,0.23888205916788421
2.8940964698823293,0.23881807144460812
2.896096536551218,-0.09973749939609783
2.8980966032201074,0.27320770420782703
2.9000966698889963,-0.13134357194846874
2.902096736557885,0.1115986765396737
2.904096803226774,0.5655734012529671
2.906096869895663,0.4595041760556048
2.908096936564552,0.45164425030236727
2.910097003233441,0.05458519135165813
2.91209706990233,-0.39523369812161535
2.9140971365712187,-0.26711847815610706
2.916097203240108,0.13945822908802216
2.918097269908997,0.008896749498316908
2.9200973365778857,0.3176227889527301
2.9220974032467746,-0.09183968620512074
2.924097469915664,0.06716358346640036
2.9260975365845527,-0.5419700060983509
2.9280976032534416,0.08360479586816566
2.9300976699223305,-0.1637810915157876
2.9320977365912197,-0.0948359178304175
2.9340978032601086,-0.1425021225944617
2.9360978699289975,-0.18529432936654242
2.9380979365978863,-0.03406558450902428
2.9400980032667756,-0.1684408363905446
2.9420980699356645,-0.40641655052038095
2.9440981366045533,-0.2446413477060297
2.946098203273442,-0.46736129231699736
2.9480982699423315,-0.7112231911281321
2.9500983366112203,-0.5900792346473036
2.952098403280109,-0.48270575823052514
2.954098469948998,-0.4905113042524364
2.9560985366178874,-0.4023218302183438
2.958098603286776,-0.5191059133250158
2.960098669955665,-0.3835563409941511
2.962098736624554,-0.6793582159876517
2.9640988032934428,-0.6233793476187788
2.966098869962332,-0.4862818329942536
2.968098936631221,-0.35210945196516874
2.97009900330011,-0.4745971656812218
2.9720990699689986,-0.2713342662116645
2.974099136637888,-0.48281177870242664
2.976099203306777,-0.8068027532082528
2.9780992699756657,-0.6511658123618601
2.9800993366445545,-0.9314450922370213
2.982099403313444,-0.6014565291617845
2.9840994699823327,-0.9087370548947653
2.9860995366512215,-0.7183759970371413
2.9880996033201104,-0.517903235912336
2.9900996699889997,-0.9329867707097257
2.9920997366578885,-0.9033168241599305
2.9940998033267774,-0.9025599936254034
2.9960998699956662,-0.925813953048422
2.9980999366645555,-0.6372824170081208
3.0001000033334444,-0.9046093193028196
3.0021000700023333,-0.8944824510108491
3.004100136671222,-0.9577703683182541
3.0061002033401114,-0.9224200680489542
3.0081002700090003,-1.109284451097194
3.010100336677889,-0.9717627281773111
3.012100403346778,-0.60304375576767
3.0141004700156673,-1.1804019854887309
3.016100536684556,-0.7088176133034862
3.018100603353445,-1.1372823587835281
3.020100670022334,-0.9529225309010382
3.0221007366912227,-1.0012713180435566
3.024100803360112,-1.312569968467286
3.026100870029001,-0.9894118107735239
3.0281009366978897,-1.6837181029611563
3.0301010033667786,-1.2963076328631218
3.032101070035668,-1.1628518481634826
3.0341011367045567,-1.5114719059089785
3.0361012033734456,-1.1067155272701583
3.0381012700423344,-0.9855278459369424
3.0401013367112237,-1.379622837816049
3.0421014033801126,-1.1166752888577245
3.0441014700490014,-1.4797443777249772
3.0461015367178903,-1.1633672590917439
3.0481016033867796,-1.2063598330253604
3.0501016700556685,-1.2148368011561144
3.0521017367245573,-1.2264602514330571
3.054101803393446,-1.24134825533056
3.0561018700623355,-1.4852104029694244
3.0581019367312243,-1.2625529144383298
3.060102003400113,-1.251405016893497
3.062102070069002,-1.1355859213338042
3.0641021367378913,-1.41908387325385
3.06610220340678,-1.3879634521517885
3.068102270075669,-1.531445609106505
3.070102336744558,-0.7933055096386785
3.0721024034134468,-1.3980498838921611
3.074102470082336,-1.146009358092775
3.076102536751225,-1.31116761701148
3.0781026034201138,-1.395227637523461
3.0801026700890026,-1.21738705856198
3.082102736757892,-1.405531204838821
3.084102803426781,-1.2858896427508724
3.0861028700956696,-1.428879469088495
3.0881029367645585,-1.403701969982792
3.090103003433448,-1.7787095264273485
3.0921030701023366,-1.4628750292783785
3.0941031367712255,-1.5658504561059972
3.0961032034401144,-1.1939052650980586
3.0981032701090037,-1.6638922210893554
3.1001033367778925,-1.1023527502119956
3.1021034034467814,-1.4566991954048814
3.1041034701156702,-1.844249328154921
3.1061035367845595,-1.6551958676622593
3.1081036034534484,-1.6808215080280506
3.1101036701223372,-1.2569670310255372
3.112103736791226,-1.7329576149127448
3.1141038034601154,-1.519916722824393
3.1161038701290042,-1.1696294828159297
3.118103936797893,-1.2637739187447752
3.120104003466782,-1.661649181598444
3.1221040701356713,-1.5346085840140373
3.12410413680456,-1.4981972807041914
3.126104203473449,-1.7711042825025753
3.128104270142338,-1.4723248648082112
3.1301043368112267,-1.7392548230122304
3.132104403480116,-1.7969727008822767
3.134104470149005,-1.2425343296173448
3.1361045368178937,-1.6548719658815334
3.1381046034867826,-1.4670002847883696
3.140104670155672,-1.4371080122164372
3.1421047368245607,-1.7348609193990252
3.1441048034934496,-1.1927055177219366
3.1461048701623384,-1.598139763034209
3.1481049368312277,-1.5580649761119931
3.1501050035001166,-1.7624439867990405
3.1521050701690054,-1.640334778281756
3.1541051368378943,-1.595273658216067
3.1561052035067836,-0.983474879121441
3.1581052701756724,-1.6175488691850757
3.1601053368445613,-1.2726152389683347
3.16210540351345,-1.4958425331735885
3.1641054701823395,-1.432005679291676
3.1661055368512283,-1.2073060575575991
3.168105603520117,-1.4316463371632098
3.170105670189006,-1.3510420868042343
3.1721057368578953,-1.1900513725680022
3.174105803526784,-1.1789831587702928
3.176105870195673,-1.3106622947229414
3.178105936864562,-1.526702502864011
3.180106003533451,-1.19219940071129
3.18210607020234,-1.5076237496668898
3.184106136871229,-1.4482056948664572
3.1861062035401178,-1.5581935887510985
3.1881062702090066,-1.2299952086812012
3.190106336877896,-1.1972748087851137
3.1921064035467848,-1.5500226050318284
3.1941064702156736,-1.674524227999595
3.1961065368845625,-1.2641405126660457
3.1981066035534518,-1.4371334815952164
3.2001066702223406,-1.309312957926639
3.2021067368912295,-1.1876647436138457
3.2041068035601183,-0.9866412116667995
3.2061068702290076,-1.0962836735738768
3.2081069368978965,-1.1640325457858742
3.2101070035667854,-1.507269056026472
3.212107070235674,-1.217258542423686
3.2141071369045635,-1.228263909628921
3.2161072035734524,-1.3837920992505057
3.2181072702423412,-1.588849506087507
3.22010733691123,-1.4239961227666091
3.2221074035801194,-0.7290657497520854
3.2241074702490082,-0.9529828233752925
3.226107536917897,-1.3784577451892264
3.228107603586786,-0.993138598174522
3.2301076702556752,-0.7782532042467827
3.232107736924564,-1.3828664908164976
3.234107803593453,-1.255194273644633
3.236107870262342,-1.0483127619894548
3.238107936931231,-0.7339273183715096
3.24010800360012,-0.9923213721195439
3.242108070269009,-1.139859890249544
3.2441081369378977,-1.1604646454530183
3.2461082036067865,-1.1924216617966534
3.248108270275676,-0.6552150319955113
3.2501083369445647,-1.1158005771959913
3.2521084036134535,-0.7001190707052356
3.2541084702823424,-0.9214603067647174
3.2561085369512317,-1.0137331441690023
3.2581086036201206,-0.5710678233775989
3.2601086702890094,-1.0139093895804383
3.2621087369578983,-1.0068327983793304
3.2641088036267876,-0.930431793742396
3.2661088702956764,-0.5567666407758636
3.2681089369645653,-0.5871702024463109
3.270109003633454,-0.979824383778636
3.2721090703023434,-0.6726932130146099
3.2741091369712323,-0.3987999411907273
3.276109203640121,-0.8221086706201178
3.27810927030901,-0.6597680375390551
3.2801093369778993,-0.5645957099871796
3.282109403646788,-0.696388691571626
3.284109470315677,-0.11064923506799734
3.286109536984566,-0.5920517633913878
3.288109603653455,-0.2988839833149578
3.290109670322344,-0.813389844014674
3.292109736991233,-0.4206827676159999
3.2941098036601217,-0.32222948265972523
3.296109870329011,-0.5191562726793492
3.2981099369979,-0.8179970796763654
3.3001100036667887,-0.2231281619971446
3.3021100703356776,-0.47618954500874866
3.3041101370045665,-0.2118101051545208
3.3061102036734558,-0.35632077578580756
3.3081102703423446,-0.17658787798706138
3.3101103370112335,-0.371854188239167
3.3121104036801223,0.021662650897961544
3.3141104703490116,-0.45556331007506357
3.3161105370179005,-0.7803131078497061
3.3181106036867893,-0.14275610766130523
3.320110670355678,-0.04804732417705214
3.3221107370245675,0.19908421347039748
3.3241108036934564,0.1360696893078022
3.326110870362345,-0.18957472751375565
3.328110937031234,0.0012556798234798355
3.3301110037001234,0.2510195095841493
3.332111070369012,0.12195550837329819
3.334111137037901,0.23136043284388355
3.33611120370679,0.15389889831609266
3.3381112703756792,0.14564438917443018
3.340111337044568,0.33860090056411496
3.342111403713457,0.05626141136377493
3.344111470382346,-0.11200448820549738
3.346111537051235,-0.019581200832191142
3.348111603720124,0.35092498251289944
3.350111670389013,0.04785247687894634
3.3521117370579017,0.007561128052437527
3.354111803726791,0.10314519909749037
3.35611187039568,0.12589018270981736
3.3581119370645687,0.14803436264934813
3.3601120037334575,0.4059028717851149
3.3621120704023464,0.35216724171094876
3.3641121370712357,0.1816412294715425
3.3661122037401245,0.3462536042140733
3.3681122704090134,0.016048725517790186
3.3701123370779023,0.39814532371747813
3.3721124037467916,0.5486191224660595
3.3741124704156804,0.37714990679426447
3.3761125370845693,0.2165714412727548
3.378112603753458,0.2766825626156495
3.3801126704223474,0.19833475586814558
3.3821127370912363,0.6387339898056404
3.384112803760125,0.8908645935987538
3.386112870429014,0.5475804070036983
3.3881129370979033,1.0636560977143419
3.390113003766792,0.43611953269826853
3.392113070435681,0.8416435535446157
3.39411313710457,0.9350356451905326
3.396113203773459,0.6567256506774576
3.398113270442348,1.1986734874548983
3.400113337111237,0.727981680676077
3.4021134037801257,0.7392017511078095
3.404113470449015,0.6136681618502088
3.406113537117904,0.47455441523125497
3.4081136037867927,0.5301060319395137
3.4101136704556816,0.7716081941733444
3.412113737124571,0.9025875733257562
3.4141138037934597,0.8250268395839097
3.4161138704623486,0.9351308025447823
3.4181139371312375,1.1529585266790163
3.4201140038001263,0.7852587194986637
3.4221140704690156,0.9987111372590499
3.4241141371379045,1.253387834066268
3.4261142038067933,0.9788058119763086
3.428114270475682,0.8695219985734256
3.4301143371445715,0.7053614552958635
3.4321144038134603,1.116763729229836
3.434114470482349,0.9936881393866285
3.436114537151238,1.3956760537786232
3.4381146038201273,1.254646082713319
3.440114670489016,1.2134503864269257
3.442114737157905,0.9198897122840934
3.444114803826794,1.1430242757018025
3.446114870495683,1.1963745983852696
3.448114937164572,0.9341337742868194
3.450115003833461,0.9007999038294332
3.45211507050235,1.1430447299573216
3.454115137171239,0.6975829421134712
3.456115203840128,1.2959446177867462
3.458115270509017,1.1103204822279795
3.4601153371779056,1.0319626893533633
3.462115403846795,1.2059500321748635
3.464115470515684,1.2621378878103098
3.4661155371845727,1.2343459074051437
3.4681156038534615,1.2911117040291875
3.470115670522351,0.9470056261102215
3.4721157371912397,1.1843331131676729
3.4741158038601285,1.5485199735748665
3.4761158705290174,1.378263727212943
3.4781159371979062,1.2430901792040416
3.4801160038667955,1.4167383242237332
3.4821160705356844,1.4685433256762597
3.4841161372045732,1.7717304433589163
3.486116203873462,1.357505677937006
3.4881162705423514,1.3031766646307301
3.4901163372112403,1.4254015226057855
3.492116403880129,1.3092649153081897
3.494116470549018,1.34763971507136
3.4961165372179073,1.129201997567281
3.498116603886796,1.392515154658084
3.500116670555685,1.7447358338380572
3.502116737224574,1.5147034203050875
3.504116803893463,1.5476244788013331
3.506116870562352,1.06193069728776
3.508116937231241,1.9150121194811331
3.5101170039001297,1.2699483185801963
3.512117070569019,1.6476471019737116
3.514117137237908,1.670185730982879
3.5161172039067967,1.3642040628097882
3.5181172705756856,1.2405447910533605
3.520117337244575,1.583428891051965
3.5221174039134637,1.5895895889916292
3.5241174705823526,1.542886847289347
3.5261175372512414,1.1779905305379952
3.5281176039201303,1.7139322218173967
3.5301176705890196,1.5938012077349122
3.5321177372579085,1.5786763551031273
3.5341178039267973,1.5102053633869996
3.536117870595686,1.5496518785328819
3.5381179372645755,1.6638475284592595
3.5401180039334643,1.6747777847319096
3.542118070602353,1.3506946424363486
3.544118137271242,1.4745629831146545
3.5461182039401313,1.7141061486703872
3.54811827060902,1.046982277721002
3.550118337277909,1.2838803761099853
3.552118403946798,1.925349399123418
3.554118470615687,1.486921547758832
3.556118537284576,1.585533121804255
3.558118603953465,1.5442426368512014
3.5601186706223538,1.306008886328465
3.562118737291243,1.6114021436576644
3.564118803960132,1.2134768778024714
3.5661188706290208,1.1946678611460633
3.5681189372979096,1.0582985560608629
3.570119003966799,1.3653613753164768
3.572119070635688,1.3498410389463322
3.5741191373045766,1.3647572393347283
3.5761192039734655,1.7815034896018642
3.578119270642355,1.5689822752948952
3.5801193373112437,1.6174604173837024
3.5821194039801325,1.501058903347879
3.5841194706490214,1.3667847888328488
3.58611953731791,1.4127372960660234
3.5881196039867995,1.6737729974700064
3.5901196706556884,1.4198142519901369
3.5921197373245772,1.5472646745198904
3.594119803993466,1.1789942861840998
3.5961198706623554,1.1269956268714443
3.5981199373312442,1.4299138756943728
3.600120004000133,1.4026982584719168
3.602120070669022,1.5582265894988692
3.6041201373379113,1.5988686076008545
3.6061202040068,1.7326216736502484
3.608120270675689,0.9770709179427052
3.610120337344578,1.658991671961056
3.612120404013467,1.5303789180868483
3.614120470682356,1.2458038371041642
3.616120537351245,1.2816525615452485
3.6181206040201337,1.4495100796270626
3.620120670689023,1.3863512078185645
3.622120737357912,1.2655809730764507
3.6241208040268007,1.1788169987234476
3.6261208706956896,1.0643986023063763
3.628120937364579,0.8136307675134552
3.6301210040334677,1.0306036006200543
3.6321210707023566,1.0676951196020281
3.6341211373712454,1.246568060921207
3.6361212040401347,1.2873401482476252
3.6381212707090236,1.0503218545411097
3.6401213373779124,0.9540861429675638
3.6421214040468013,0.8900128670887675
3.64412147071569,0.9777360458972103
3.6461215373845794,1.5031371698454503
3.6481216040534683,1.1405781096715895
3.650121670722357,1.0123526249840726
3.652121737391246,1.2857670243544452
3.6541218040601353,1.2889570788260307
3.656121870729024,1.1704750600714229
3.658121937397913,1.0018916504611048
3.660122004066802,0.7032726140277556
3.662122070735691,0.6584332386912672
3.66412213740458,1.1797300125110173
3.666122204073469,0.9742809435718734
3.6681222707423577,0.40806332562703573
3.670122337411247,1.0234005968834172
3.672122404080136,0.5489846184146927
3.6741224707490248,0.6572741387270511
3.6761225374179136,0.6737018429861822
3.678122604086803,0.4716060343810936
3.6801226707556918,0.6128685563241775
3.6821227374245806,0.5082824312081349
3.6841228040934695,0.5990058195259382
3.686122870762359,0.9546253536355465
3.6881229374312476,1.1467236665874165
3.6901230041001365,0.591774566571005
3.6921230707690254,0.3931282059051068
3.6941231374379147,0.5295129581178059
3.6961232041068035,0.5519415578684475
3.6981232707756924,0.811919941793573
3.700123337444581,0.10579409201428774
3.70212340411347,0.31432708327711123
3.7041234707823594,0.6785421728164496
3.7061235374512482,0.24210618341555204
3.708123604120137,0.6170501119252972
3.710123670789026,0.4979367432166639
3.7121237374579152,0.2503118477274003
3.714123804126804,0.3460567144290346
3.716123870795693,0.3662733177625665
3.718123937464582,0.4904050558140243
3.720124004133471,0.3661615831257944
3.72212407080236,0.30447520993997385
3.724124137471249,0.48001571717058256
3.7261242041401377,-0.2918246849722007
3.728124270809027,0.16829934934391289
3.730124337477916,0.10326945705773924
3.7321244041468047,-0.10445595393450047
3.7341244708156935,0.13398937011575002
3.736124537484583,0.17247144138868423
3.7381246041534717,-0.21563386443033777
3.7401246708223606,-0.07593149166483901
3.7421247374912494,0.23934707633768082
3.7441248041601387,-0.18134186229835544
3.7461248708290276,-0.254060547907811
3.7481249374979164,-0.013616803428100763
3.7501250041668053,0.19730639646232176
3.7521250708356946,0.011831100591617794
3.7541251375045834,-0.07616466859965379
3.7561252041734723,0.051161225760288975
3.758125270842361,-0.0042984406828025234
3.76012533751125,-0.28142203813681327
3.7621254041801393,-0.4392725638090358
3.764125470849028,-0.2911741992239072
3.766125537517917,-0.12652448038209746
3.768125604186806,0.13278298507220232
3.770125670855695,-0.16048657776834424
3.772125737524584,-0.19950726761045273
3.774125804193473,-0.4676374847783812
3.7761258708623617,-0.4673544759457578
3.778125937531251,-0.5593649034520436
3.78012600420014,-0.4722535092817097
3.7821260708690287,-0.26249966688138626
3.7841261375379176,-0.698736360027369
3.786126204206807,-0.05105864292037854
3.7881262708756958,-0.6315884954663814
3.7901263375445846,-0.4875653274106973
3.7921264042134735,-0.5141867401060674
3.7941264708823628,-0.6927077095482692
3.7961265375512516,-0.7282699897804312
3.7981266042201405,-0.7415786594723724
3.8001266708890293,-0.6610367564270118
3.8021267375579186,-0.8184466478320253
3.8041268042268075,-0.33468315978513175
3.8061268708956963,-0.7699236981350088
3.808126937564585,-0.9085175748889933
3.8101270042334745,-0.6152288775804228
3.8121270709023634,-1.0939035789020846
3.814127137571252,-0.6349401213781258
3.816127204240141,-0.3753964858429156
3.81812727090903,-0.6117354855591224
3.8201273375779192,-0.6406241682125255
3.822127404246808,-0.7710205717574318
3.824127470915697,-0.748415270492311
3.826127537584586,-0.9842349381191988
3.828127604253475,-0.938480579381091
3.830127670922364,-1.0511303096896563
3.832127737591253,-1.0753867401382882
3.8341278042601417,-0.6310785094611326
3.836127870929031,-0.6907392298867981
3.83812793759792,-0.9274403591557805
3.8401280042668087,-1.394057682481444
3.8421280709356975,-0.6286574514457232
3.844128137604587,-0.913754426927837
3.8461282042734757,-1.138750652081286
3.8481282709423645,-0.8378777781559158
3.8501283376112534,-0.9827056931271605
3.8521284042801427,-1.1478677597556703
3.8541284709490315,-1.1414046795153465
3.8561285376179204,-0.9281713418486688
3.8581286042868093,-0.7765537981240133
3.8601286709556986,-1.0447899808351355
3.8621287376245874,-1.0497495131690018
3.8641288042934763,-1.239374171246987
3.866128870962365,-1.259657226668018
3.8681289376312544,-1.0770688455894655
3.8701290043001433,-1.2633485433405844
3.872129070969032,-0.96457504140889
3.874129137637921,-1.5591290008942909
3.87612920430681,-1.1595804324197765
3.878129270975699,-1.058490271496844
3.880129337644588,-1.0302863984570503
3.882129404313477,-1.5129143435119792
3.8841294709823657,-1.1584006173297985
3.886129537651255,-1.0420882232234834
3.888129604320144,-0.9830870857079084
3.8901296709890327,-1.5622598536106287
3.8921297376579216,-1.3535726117414235
3.894129804326811,-1.49453657415419
3.8961298709956997,-1.1607269042450965
3.8981299376645886,-1.2478416578069536
3.9001300043334775,-1.413123342375314
3.9021300710023668,-1.4590083756841539
3.9041301376712556,-1.4942794438712084
3.9061302043401445,-1.368633590239571
3.9081302710090333,-1.3925065080867556
3.9101303376779226,-0.9482085307596633
3.9121304043468115,-1.167883727133353
3.9141304710157003,-1.2105329549517163
3.916130537684589,-1.566893594705229
3.9181306043534785,-1.4213399967579434
3.9201306710223673,-1.4620934922603044
3.922130737691256,-1.5672649275471542
3.924130804360145,-1.6036742068021164
3.926130871029034,-1.3973001389368673
3.928130937697923,-1.5358610773974584
3.930131004366812,-1.338849818434726
3.932131071035701,-1.5616102206615972
3.9341311377045898,-1.2273252825728804
3.936131204373479,-1.5327327822247436
3.938131271042368,-2.2395898459387724
3.940131337711257,-1.1111063743960807
3.9421314043801456,-2.0214626870863617
3.944131471049035,-1.3606253419683807
3.946131537717924,-1.6674930572433957
3.9481316043868127,-1.8060712511226167
3.9501316710557015,-1.2919113805060023
3.952131737724591,-1.4937046399673288
3.9541318043934797,-1.035068437956082
3.9561318710623685,-1.325986665624198
3.9581319377312574,-1.5686307454086073
3.9601320044001467,-1.5630836211836843
3.9621320710690355,-1.4196136259518193
3.9641321377379244,-1.4983703794022172
3.9661322044068132,-1.2021249350959984
3.9681322710757025,-1.3378902762991085
3.9701323377445914,-1.4216220566845017
3.9721324044134803,-1.62270878067365
3.974132471082369,-2.0200509078468576
3.9761325377512584,-1.5591532939896287
3.9781326044201473,-1.182207932532972
3.980132671089036,-1.3687203660750036
3.982132737757925,-1.6005387640514264
3.984132804426814,-1.4748780583402645
3.986132871095703,-1.7999520936253335
3.988132937764592,-1.4321367088137753
3.990133004433481,-1.403362362522104
3.9921330711023697,-1.3932874444521102
3.994133137771259,-1.6837001622910344
3.996133204440148,-1.1475092534574525
3.9981332711090367,-1.3278132308552932
4.000133337777926,-1.7501691601149276
4.002133404446814,-1.4950654381579707
4.004133471115703,-1.2216266499168864
4.006133537784593,-1.506461259024916
4.008133604453482,-1.4126630242928762
4.010133671122371,-1.6364536667032017
4.01213373779126,-1.126908901899534
4.0141338044601484,-1.3314061544527014
4.016133871129037,-1.1812350125872084
4.018133937797926,-1.53783652321495
4.020134004466815,-0.9275512709331333
4.022134071135705,-1.2349259306948275
4.024134137804594,-1.195991095917011
4.0261342044734825,-1.0436862299655167
4.028134271142371,-0.8971812869778821
4.03013433781126,-1.5411967917333111
4.032134404480149,-0.9694639394510609
4.034134471149038,-1.3062256730185082
4.036134537817927,-1.2780417510467217
4.0381346044868165,-1.2483622712410087
4.040134671155705,-1.2804836904765569
4.042134737824594,-1.5823932761745345
4.044134804493483,-1.3412715971097362
4.046134871162372,-1.4355709331563977
4.048134937831261,-1.3997570871476421
4.05013500450015,-0.8545206673475978
4.0521350711690385,-1.36001177829029
4.054135137837927,-1.2066311686404319
4.056135204506817,-0.9493266884127147
4.058135271175706,-1.2223772238497055
4.060135337844595,-0.7749314637209116
4.062135404513484,-0.953159280245584
4.0641354711823725,-0.7034699602294479
4.066135537851261,-0.5670036925153603
4.06813560452015,-0.7337130905514819
4.070135671189039,-0.4762717015221557
4.072135737857929,-1.0407783599812308
4.074135804526818,-0.6627703539568424
4.0761358711957065,-0.7244645577851224
4.078135937864595,-0.6066555237364517
4.080136004533484,-1.0908128423715464
4.082136071202373,-0.6186278951055384
4.084136137871262,-0.9989975408549703
4.086136204540151,-0.5214805439068139
4.0881362712090406,-1.0146757751115467
4.090136337877929,-1.312281256058303
4.092136404546818,-0.5975414239243186
4.094136471215707,-0.7882704081529806
4.096136537884596,-0.8502815457158901
4.098136604553485,-0.4751270023260931
4.100136671222374,-0.5921826057643014
4.1021367378912625,-0.48289659238289767
4.104136804560151,-0.6901600235780924
4.106136871229041,-0.7660946949225863
4.10813693789793,-1.0197172615238494
4.110137004566819,-0.6935102770506114
4.112137071235708,-0.9451082277382359
4.114137137904597,-0.7364855695006772
4.116137204573485,-0.6418935860574696
4.118137271242374,-0.5788901474249063
4.120137337911263,-0.11870796409293477
4.122137404580153,-0.7328653791045268
4.124137471249042,-0.7667025404702934
4.126137537917931,-0.7420593025140352
4.128137604586819,-0.3486770502919828
4.130137671255708,-0.5678651419125242
4.132137737924597,-0.7795597097131228
4.134137804593486,-0.3875911260947266
4.136137871262375,-0.2839806596665356
4.138137937931265,-0.2773191454599333
4.1401380046001535,-0.2867421761412725
4.142138071269042,0.0035518724753140773
4.144138137937931,-0.17574835170995107
4.14613820460682,-0.1318337829487386
4.148138271275709,-0.15080539346961502
4.150138337944598,0.07258694971243415
4.152138404613487,-0.47216160609511115
4.1541384712823755,-0.015057772096643385
4.156138537951265,-0.11253903930830761
4.158138604620154,-0.07851659605541803
4.160138671289043,0.10890582291071994
4.162138737957932,-0.2576408530200951
4.164138804626821,-0.09645781885337387
4.1661388712957095,-0.1337776708898239
4.168138937964598,0.3587729629042904
4.170139004633487,-0.029540136138353212
4.172139071302377,-0.014765842547622393
4.174139137971266,0.2092572124457595
4.176139204640155,-0.14441912771607937
4.1781392713090435,0.3457991724119388
4.180139337977932,0.12071068768154675
4.182139404646821,0.049314918692487775
4.18413947131571,0.2144114676475345
4.186139537984599,0.056279943845387786
4.188139604653489,0.3838966988115122
4.1901396713223775,0.04357154515354267
4.192139737991266,0.05117217563461274
4.194139804660155,0.1785403178092442
4.196139871329044,0.29821791158622624
4.198139937997933,0.23221006276107026
4.200140004666822,0.09550181009023556
4.202140071335711,0.46340101979781445
4.2041401380046,0.15642592003802197
4.206140204673489,0.9761722005580543
4.208140271342378,0.0024447105622636967
4.210140338011267,0.39461606281220346
4.212140404680156,0.6168558117155363
4.214140471349045,0.48900335290400093
4.2161405380179335,0.5498879658135076
4.218140604686822,0.3059428700458291
4.220140671355711,0.6526328486080731
4.222140738024601,0.713367425236459
4.22414080469349,0.5656213266149982
4.226140871362379,0.5277990885041187
4.228140938031268,0.8448744772788073
4.230141004700156,0.5208234685063119
4.232141071369045,0.9528261515779998
4.234141138037934,0.6111962565691929
4.236141204706823,0.717283595768409
4.238141271375713,0.4444694357089613
4.240141338044602,1.0192978745500256
4.24214140471349,0.30064109717312504
4.244141471382379,0.758183632862521
4.246141538051268,1.1752795528856677
4.248141604720157,0.9460104543388306
4.250141671389046,0.5578607254351053
4.252141738057935,0.809986035988578
4.2541418047268245,1.0235432497162256
4.256141871395713,1.0744063568303985
4.258141938064602,0.9487193571773872
4.260142004733491,0.7777568109967528
4.26214207140238,0.8541383678273334
4.264142138071269,0.8542380566030859
4.266142204740158,0.8194188611640925
4.2681422714090465,1.0064712927539017
4.270142338077935,0.40336204281128096
4.272142404746825,1.1976380971928369
4.274142471415714,1.2686338573087537
4.276142538084603,1.3878272889956866
4.278142604753492,1.4974566891961238
4.2801426714223805,1.0363894491142416
4.282142738091269,0.863918504387847
4.284142804760158,1.056904557701511
4.286142871429047,1.3375656440207222
4.288142938097937,1.0151382275603689
4.290143004766826,1.2991479934438872
4.2921430714357145,1.0558690863968307
4.294143138104603,1.1389245278982907
4.296143204773492,1.1018350237850238
4.298143271442381,1.3601569677263232
4.30014333811127,1.7904760402895694
4.302143404780159,1.4129144398048443
4.3041434714490485,0.9688792970133431
4.306143538117937,1.437714326630788
4.308143604786826,1.5925787664017028
4.310143671455715,1.3351674373941609
4.312143738124604,1.465084992515921
4.314143804793493,1.6289928868407548
4.316143871462382,1.2254859858576816
4.3181439381312705,1.313201892371981
4.32014400480016,1.3158969147430946
4.322144071469049,1.0800572584006394
4.324144138137938,1.1599102649399127
4.326144204806827,1.5043291254480637
4.328144271475716,1.452128278452004
4.3301443381446045,1.1525852401500933
4.332144404813493,1.4111626228075205
4.334144471482382,1.8568144814730783
4.336144538151271,1.558233379857821
4.338144604820161,1.4261713580557671
4.34014467148905,1.3914657679556512
4.3421447381579386,1.7534373898878692
4.344144804826827,1.329096962230818
4.346144871495716,1.3974625480783793
4.348144938164605,1.7290419263693881
4.350145004833494,1.660016766096299
4.352145071502383,1.1677713091184867
4.354145138171273,1.3885278126160188
4.356145204840161,1.344800902981467
4.35814527150905,1.4181465224930985
4.360145338177939,1.4890081721250736
4.362145404846828,1.6125066069417486
4.364145471515717,1.2849078302026646
4.366145538184606,1.4207285595983659
4.368145604853495,1.259381263866576
4.370145671522384,1.3709508943830375
4.372145738191273,1.8679885574194948
4.374145804860162,1.5914945534730824
4.376145871529051,1.2016558573938518
4.37814593819794,1.6792850956680958
4.380146004866829,1.6732954923355294
4.3821460715357174,1.60205295710196
4.384146138204606,1.4693067283111638
4.386146204873495,1.3527816110344033
4.388146271542385,1.6772530450176684
4.390146338211274,1.8576778339864544
4.392146404880163,1.6270419773276146
4.3941464715490515,1.311126603288842
4.39614653821794,1.7751572897000427
4.398146604886829,1.360483736976458
4.400146671555718,1.4181832474049147
4.402146738224607,1.6258834548044132
4.404146804893497,1.6437562845058125
4.4061468715623855,1.4426613102190657
4.408146938231274,1.5375089835685005
4.410147004900163,1.392378767837409
4.412147071569052,1.5381101430752806
4.414147138237941,1.33474142515809
4.41614720490683,1.6539062328173202
4.418147271575719,1.5919329713545318
4.420147338244608,1.5955733688984381
4.422147404913497,1.308157528504713
4.424147471582386,1.3265913281584647
4.426147538251275,1.4237568781872054
4.428147604920164,1.4258056353006525
4.430147671589053,1.4973820282539176
4.4321477382579415,1.5923945280696543
4.43414780492683,1.4685061714880623
4.43614787159572,1.2817248902061074
4.438147938264609,1.063519906015801
4.440148004933498,1.2228742265452954
4.442148071602387,1.2484217372119057
4.4441481382712755,1.214293227471314
4.446148204940164,1.726629362075904
4.448148271609053,1.4031043717069724
4.450148338277942,1.4651565536535458
4.452148404946831,1.2269001427329367
4.454148471615721,1.3520881174229376
4.4561485382846096,1.255791498601531
4.458148604953498,1.3639072940647505
4.460148671622387,1.4220925393885273
4.462148738291276,1.2061344766613582
4.464148804960165,1.143018409053308
4.466148871629054,1.2809479021616024
4.468148938297943,1.0783179177392723
4.470149004966832,1.201051970875274
4.472149071635721,0.8682612392746482
4.47414913830461,1.072631116976346
4.476149204973499,0.7934467160108918
4.478149271642388,1.228943003696783
4.480149338311277,1.2598797348343718
4.482149404980166,1.0354721136925327
4.484149471649054,1.045161712623312
4.486149538317944,0.830959193875702
4.488149604986833,0.7679674168993313
4.490149671655722,0.7809261972748802
4.492149738324611,0.8188793837400128
4.4941498049935,0.5724388338953432
4.496149871662388,0.8185909703380805
4.498149938331277,0.9739261713124207
4.500150005000166,0.8112974088666917
4.502150071669055,0.791405555186898
4.504150138337945,0.5303962438370415
4.506150205006834,0.6780859610563775
4.5081502716757225,0.835034956611863
4.510150338344611,1.079499549953892
4.5121504050135,0.7471458429236673
4.514150471682389,0.5800605575337862
4.516150538351278,0.5866007667601744
4.518150605020167,0.5862849414904058
4.5201506716890565,0.5055733876950906
4.522150738357945,0.6214664642208051
4.524150805026834,0.613499463219579
4.526150871695723,0.5277434407350036
4.528150938364612,0.9606389305371693
4.530151005033501,0.5719222841433916
4.53215107170239,0.6429490670272747
4.5341511383712785,0.7323839891229831
4.536151205040168,0.654488523395794
4.538151271709057,0.752315818087821
4.540151338377946,0.2121765320167503
4.542151405046835,0.4471309827936766
4.544151471715724,0.7213274896468427
4.5461515383846125,0.4731429784844496
4.548151605053501,0.42136868191841936
4.55015167172239,0.08578606706605435
4.552151738391279,0.698908851684749
4.554151805060169,0.36986810588462626
4.556151871729058,0.33205575940022564
4.5581519383979465,0.43898664751897487
4.560152005066835,-0.013999724071698527
4.562152071735724,0.11123879884391594
4.564152138404613,0.16235575144880848
4.566152205073502,0.0016331632098728066
4.568152271742391,0.35469195670613146
4.5701523384112805,-0.08740087454069595
4.572152405080169,0.17038209122463394
4.574152471749058,0.20277708223278154
4.576152538417947,-0.19014934976746445
4.578152605086836,0.06251574254950648
4.580152671755725,-0.07194454528282496
4.582152738424614,0.23758966822605782
4.5841528050935025,0.030502011019327178
4.586152871762392,-0.2743966324782943
4.588152938431281,0.19705154242869077
4.59015300510017,-0.027997666407987856
4.592153071769059,-0.2694051607090543
4.594153138437948,-0.18764525588835285
4.596153205106837,-0.21028128347144193
4.598153271775725,-0.6417467417040563
4.600153338444614,-0.14939913065359167
4.602153405113504,-0.41895587250419997
4.604153471782393,-0.16312656746059534
4.606153538451282,-0.31870860357896535
4.608153605120171,-0.40842113284220605
4.610153671789059,-0.03754524874989551
4.612153738457948,-0.5403489985406874
4.614153805126837,-0.2019441055069271
4.616153871795726,-0.018873675773225296
4.618153938464615,-0.3299613519805301
4.620154005133505,-0.4051306252555621
4.6221540718023935,-0.5961707155162951
4.624154138471282,-0.4559482973620769
4.626154205140171,-0.28335713867041057
4.62815427180906,-0.06487122580326027
4.630154338477949,-0.27225823799540494
4.632154405146838,-0.40983433329158775
4.634154471815727,-0.6827556938733192
4.636154538484616,-0.7141370958843232
4.638154605153505,-0.6444490615064014
4.640154671822394,-0.5961067049082036
4.642154738491283,-0.7141307829706698
4.644154805160172,-0.5215413485902772
4.646154871829061,-0.8110592283032546
4.6481549384979495,-0.8387997529878868
4.650155005166838,-1.0558600749148308
4.652155071835728,-0.7939514152430828
4.654155138504617,-0.651582132181841
4.656155205173506,-0.6405504735738232
4.658155271842395,-0.7698607915406596
4.6601553385112835,-0.9269519239903437
4.662155405180172,-0.46487149239622866
4.664155471849061,-0.5917459314693807
4.66615553851795,-0.8286486985943916
4.668155605186839,-0.9407497891948738
4.670155671855729,-0.5849926574777866
4.6721557385246175,-1.290743716585857
4.674155805193506,-0.9595332556651349
4.676155871862395,-0.7793013988981686
4.678155938531284,-1.161692462032129
4.680156005200173,-1.2154846492076286
4.682156071869062,-1.0448539668228787
4.684156138537951,-0.821555534424774
4.68615620520684,-1.1162086355968692
4.688156271875729,-1.00288986474062
4.690156338544618,-1.1587019846458577
4.692156405213507,-1.2082581323217498
4.694156471882396,-0.7391541704119524
4.696156538551285,-1.1375660353775678
4.6981566052201735,-1.2559405306894416
4.700156671889062,-0.9598705149912986
4.702156738557952,-1.327426046179418
4.704156805226841,-0.9857002059304272
4.70615687189573,-0.8730248113573236
4.708156938564619,-1.0850798210160433
4.7101570052335076,-1.476435629028157
4.712157071902396,-1.3402130376026442
4.714157138571285,-1.302004065814212
4.716157205240174,-1.4534357856181714
4.718157271909064,-1.4142039659496417
4.720157338577953,-1.4761735503097835
4.722157405246842,-1.1563229066906797
4.72415747191573,-1.4478284855843373
4.726157538584619,-1.7293628864335908
4.728157605253508,-1.414240511725068
4.730157671922397,-1.2614796376547268
4.732157738591286,-1.4817293147818928
4.734157805260175,-1.2685788934184379
4.7361578719290645,-1.278877571234146
4.738157938597953,-1.323258116187831
4.740158005266842,-1.3625342549524533
4.742158071935731,-1.7016496451542438
4.74415813860462,-1.5255954444292257
4.746158205273509,-1.409242355775292
4.748158271942398,-1.5210745680099287
4.7501583386112864,-1.4127780504614411
4.752158405280176,-1.2780985904731461
4.754158471949065,-1.4513255410410557
4.756158538617954,-1.3486367799155856
4.758158605286843,-1.6602117970953723
4.760158671955732,-1.2027961334477917
4.7621587386246205,-1.4397813962045378
4.764158805293509,-1.4880837318665991
4.766158871962398,-1.277510911901365
4.768158938631288,-1.5442742110675787
4.770159005300177,-1.6650665111912433
4.772159071969066,-1.6900475440577356
4.7741591386379545,-1.4312907773478292
4.776159205306843,-1.3046367466394873
4.778159271975732,-1.6130484851150289
4.780159338644621,-1.6535904139778603
4.78215940531351,-1.2751452015765232
4.784159471982399,-1.2838821716592295
4.7861595386512885,-1.5552554167015542
4.788159605320177,-1.6131464808769314
4.790159671989066,-1.9883085889378576
4.792159738657955,-1.8654797407817179
4.794159805326844,-1.249262438482375
4.796159871995733,-1.613293826165048
4.798159938664622,-1.6647652527982895
4.8001600053335105,-1.352259660185075
4.8021600720024,-1.6726923690082323
4.804160138671289,-1.3804093600106278
4.806160205340178,-1.4631692348465015
4.808160272009067,-1.5797629774061168
4.810160338677956,-1.6485772468411573
4.8121604053468445,-1.4453852993438012
4.814160472015733,-1.4646321680020833
4.816160538684622,-1.7900149511889312
4.818160605353512,-1.635906051358735
4.820160672022401,-1.5298569480897755
4.82216073869129,-1.2210005210543728
4.8241608053601785,-1.1515641305916455
4.826160872029067,-1.215039820446201
4.828160938697956,-1.1546755955094172
4.830161005366845,-1.2064524104000967
4.832161072035734,-1.2264304838367401
4.834161138704624,-1.64166193661358
4.836161205373513,-1.3663442750617878
4.838161272042401,-1.4563971608807702
4.84016133871129,-1.2400270636895505
4.842161405380179,-1.4393057981910151
4.844161472049068,-1.3559989141965763
4.846161538717957,-1.3555141904269654
4.848161605386846,-1.4552181118692273
4.850161672055735,-1.0373475648922443
4.852161738724624,-1.2830152730790958
4.854161805393513,-1.5037602877839065
4.856161872062402,-1.505813659471275
4.858161938731291,-1.168452725226594
4.86016200540018,-1.3517201744101013
4.862162072069069,-1.1525660582788844
4.864162138737957,-1.2854498027176664
4.866162205406846,-1.2273730713019047
4.868162272075736,-1.2719536404582583
4.870162338744625,-1.2718454963898094
4.872162405413514,-1.5057560752076518
4.874162472082403,-1.1211985757393979
4.8761625387512915,-1.4798453643315206
4.87816260542018,-1.4978477056877988
4.880162672089069,-1.1092523369754026
4.882162738757958,-1.404508075196132
4.884162805426848,-1.1001556298725343
4.886162872095737,-1.0638582431592314
4.8881629387646255,-1.543380982460631
4.890163005433514,-1.3612831128963885
4.892163072102403,-1.115302867488728
4.894163138771292,-1.1151695987731047
4.896163205440181,-0.801900217524853
4.89816327210907,-1.072134878480256
4.900163338777959,-0.7779063848195563
4.902163405446848,-1.038540665264605
4.904163472115737,-1.0468753359561
4.906163538784626,-0.9992943899499427
4.908163605453515,-0.8847337026346429
4.910163672122404,-0.8073945854840342
4.912163738791293,-0.7415546379881544
4.9141638054601815,-0.7569456494186012
4.91616387212907,-0.9268539091598536
4.91816393879796,-0.9677838180367403
4.920164005466849,-0.8528304237608626
4.922164072135738,-0.7419744371330909
4.924164138804627,-1.1962671894271069
4.9261642054735155,-0.8197064142437617
4.928164272142404,-0.7082920199479823
4.930164338811293,-0.7593110232864144
4.932164405480182,-0.640878361338408
4.934164472149072,-0.35402081511042083
4.936164538817961,-0.9588501289425182
4.9381646054868495,-0.5992596867051003
4.940164672155738,-0.5340550359118252
4.942164738824627,-0.5491085177259297
4.944164805493516,-0.5213744459578189
4.946164872162405,-0.7373730918157698
4.948164938831294,-0.7949342087569106
4.950165005500183,-0.23739934014634323
4.952165072169072,-0.25202994874336443
4.954165138837961,-0.41990771525481846
4.95616520550685,-0.4471789320471391
4.958165272175739,-0.3933221632866813
4.960165338844628,-0.26465036456563373
4.962165405513517,-0.4756292202274033
4.964165472182406,-0.3348600765012559
4.966165538851294,-0.44690908578405764
4.968165605520184,-0.3109342850406549
4.970165672189073,-0.6429879767161865
4.972165738857962,-0.06057522051479791
4.974165805526851,-0.3753304721910237
4.97616587219574,-0.009065396777065637
4.978165938864628,0.028881742960441326
4.980166005533517,-0.14660193916401082
4.982166072202406,-0.06218777809449913
4.984166138871296,-0.004240468069152653
4.986166205540185,-0.14695716293308575
4.988166272209074,-0.08666579108818281
4.9901663388779625,-0.21033272508301448
4.992166405546851,0.07046490710739468
4.99416647221574,-0.005682469576044208
4.996166538884629,0.015140236696345559
4.998166605553518,-0.028078205822603362
5.000166672222408,-0.1764597158716694
5.0021667388912965,0.38074759113439344
5.004166805560185,0.4003579873628872
5.006166872229074,0.256828756294058
5.008166938897963,0.012100998547127428
5.010167005566852,0.5319914392114318
5.012167072235741,0.010999409034160273
5.01416713890463,0.22483212107352493
5.0161672055735185,0.3680647181965275
5.018167272242408,0.03687997130553014
5.020167338911297,0.16806067991006227
5.022167405580186,0.3953898504217362
5.024167472249075,0.3113298575532689
5.026167538917964,0.4476742158670747
5.0281676055868525,0.6603452149959486
5.030167672255741,0.6175478347035726
5.03216773892463,0.08806625538046442
5.03416780559352,0.34737263492260306
5.036167872262409,-0.025753236044495753
5.038167938931298,0.497392488410049
5.0401680056001865,0.3461236202807156
5.042168072269075,0.6566604702506705
5.044168138937964,0.539679776844973
5.046168205606853,0.40567140393970585
5.048168272275742,0.33870921893473566
5.050168338944632,0.6851627275303884
5.0521684056135205,0.6018025184422853
5.054168472282409,0.6892882229296335
5.056168538951298,0.7735574976680942
5.058168605620187,0.5280697966572546
5.060168672289076,0.9732332628273201
5.062168738957965,0.347833252289339
5.064168805626854,1.0990930738207916
5.0661688722957425,0.566210161680286
5.068168938964632,0.5383493010920566
5.070169005633521,0.8683257732274314
5.07216907230241,0.8067428049085897
5.074169138971299,0.8776779744635931
5.076169205640188,0.6317341386004908
5.0781692723090766,0.8284795788312332
5.080169338977965,0.5603308702671043
5.082169405646854,1.065793489020813
5.084169472315744,0.8549027101294939
5.086169538984633,1.007743722845531
5.088169605653522,0.807240671588745
5.090169672322411,0.5783805803040428
5.092169738991299,0.8311559540635682
5.094169805660188,0.9145908165399064
5.096169872329077,0.7876318848456356
5.098169938997966,0.8553692075993643
5.100170005666856,1.1880733693823622
5.102170072335745,1.1034403730399647
5.1041701390046335,1.0075361063680954
5.106170205673522,1.0859560915421114
5.108170272342411,0.7827289088755335
5.1101703390113,1.0746061072731632
5.112170405680189,1.2576448741660475
5.114170472349078,1.3087339955840105
5.1161705390179675,0.8295835027044081
5.118170605686856,0.8520365123706868
5.120170672355745,1.0814889809325199
5.122170739024634,1.5193752446129731
5.124170805693523,1.265877496949218
5.126170872362412,1.4259728853138656
5.128170939031301,1.2087222635096169
5.1301710057001895,1.0560242698473346
5.132171072369078,1.1627246101004247
5.134171139037968,1.2109055059864626
5.136171205706857,1.8662927975106922
5.138171272375746,1.2920105222097626
5.140171339044635,1.1197970561907309
5.1421714057135235,1.8279412712586276
5.144171472382412,1.320193722684199
5.146171539051301,1.7283497759570088
5.14817160572019,1.3707018178639803
5.15017167238908,1.0824304840176047
5.152171739057969,1.649820049145448
5.1541718057268575,1.4357222091485438
5.156171872395746,1.4999511540037056
5.158171939064635,1.782610350064169
5.160172005733524,1.3889092774039706
5.162172072402413,1.530323285927602
5.164172139071302,1.6030879497760255
5.1661722057401915,1.3859907137110792
5.16817227240908,1.5144098257984226
5.170172339077969,1.5808601101598863
5.172172405746858,1.2607785520900054
5.174172472415747,1.3059439682620115
5.176172539084636,1.3786813581630473
5.178172605753525,1.7740732134990882
5.1801726724224135,1.6324077656454223
5.182172739091302,1.1912406361465497
5.184172805760192,1.4983346423029582
5.186172872429081,1.6799041864308486
5.18817293909797,1.5356528308892121
5.190173005766859,1.655018297064357
5.1921730724357475,1.4357374214783167
5.194173139104636,1.390249052548165
5.196173205773525,1.4305233616213506
5.198173272442414,1.7157815874493587
5.200173339111304,1.5105904356442645
5.202173405780193,1.4171038641626046
5.204173472449082,1.3013891690491164
5.20617353911797,1.4788344456570766
5.208173605786859,1.4418569461972512
5.210173672455748,1.0312607243020722
5.212173739124637,1.39998137649277
5.214173805793526,1.8449125853503716
5.216173872462416,1.441058765564322
5.2181739391313045,1.7766382489188088
5.220174005800193,1.4847897932853482
5.222174072469082,1.7661091979265848
5.224174139137971,1.41020970851532
5.22617420580686,1.5650902056237168
5.228174272475749,1.6570366502812361
5.230174339144638,1.4780534956260805
5.232174405813527,1.1921666498472798
5.234174472482416,1.0592148497974667
5.236174539151305,1.5893229870648755
5.238174605820194,1.2512463735207449
5.240174672489083,1.2222010835423867
5.242174739157972,1.410528485170526
5.2441748058268605,1.4793403043965068
5.246174872495749,1.5200367798589238
5.248174939164638,1.6007480570769759
5.250175005833528,1.6696641334239963
5.252175072502417,1.3733975007927184
5.254175139171306,1.749064572766575
5.2561752058401945,1.2679723564313425
5.258175272509083,1.314701514551268
5.260175339177972,1.210178470510651
5.262175405846861,1.3106441964060893
5.26417547251575,1.6951843157004167
5.26617553918464,1.33226806904811
5.2681756058535285,1.537739219677391
5.270175672522417,1.4766872318873852
5.272175739191306,1.4884231539148292
5.274175805860195,1.7053935908909772
5.276175872529084,1.39683644908285
5.278175939197973,1.4173030021395836
5.280176005866862,1.1104376378117906
5.282176072535751,1.2604017940821475
5.28417613920464,1.066354098807151
5.286176205873529,1.3083298339282623
5.288176272542418,1.270189639091301
5.290176339211307,0.965921704124496
5.292176405880196,0.9808240715483334
5.2941764725490845,0.954281051296624
5.296176539217973,1.2537002395017334
5.298176605886862,1.2120429181448462
5.300176672555752,0.821894116057049
5.302176739224641,0.9986081258539946
5.30417680589353,0.9542987514156764
5.3061768725624185,1.0549275839960608
5.308176939231307,1.3940837221241527
5.310177005900196,1.127985029932451
5.312177072569085,0.8838825137803794
5.314177139237974,1.0011894511380943
5.316177205906864,0.8276050142891399
5.318177272575753,1.3921093013434713
5.320177339244641,0.6384186225934345
5.32217740591353,1.0606344339319653
5.324177472582419,0.5733512557415028
5.326177539251308,0.8090688250964261
5.328177605920197,0.8370395887966526
5.330177672589086,0.9042399748353179
5.3321777392579754,0.59458842016083
5.334177805926864,0.8446509975061968
5.336177872595753,1.0035330875666235
5.338177939264642,0.9706057449840376
5.340178005933531,1.077751973619287
5.34217807260242,0.6813455004835902
5.344178139271309,0.8839719068610006
5.346178205940197,0.8682714529597115
5.348178272609086,0.7854724134020126
5.350178339277976,1.17569630932147
5.352178405946865,0.7139654534396451
5.354178472615754,0.5159827694468964
5.356178539284643,0.7766853506667029
5.3581786059535315,0.1657444579150208
5.36017867262242,0.7717255947069563
5.362178739291309,0.9744087593007411
5.364178805960198,0.7831732563386107
5.366178872629088,0.5756028267019444
5.368178939297977,0.5452787300755833
5.3701790059668655,0.5783387118760376
5.372179072635754,0.4233428083817361
5.374179139304643,0.3951243326909922
5.376179205973532,0.12014149989837553
5.378179272642421,0.23877588216205153
5.38017933931131,0.2065749792876226
5.3821794059801995,0.541772245675936
5.384179472649088,0.4112370076000641
5.386179539317977,0.5232122311400288
5.388179605986866,0.25172415461733777
5.390179672655755,0.1777520456227039
5.392179739324644,-0.08154295106315546
5.394179805993533,0.10895609088944866
5.3961798726624215,0.13117103787473455
5.398179939331311,0.5504564797922644
5.4001800060002,-0.08135934231113603
5.402180072669089,0.4598163174485207
5.404180139337978,0.19853311943550908
5.406180206006867,-0.01320764597889823
5.4081802726757555,0.21121360437356632
5.410180339344644,0.14159408059536882
5.412180406013533,0.052818858800076245
5.414180472682422,0.056935765366889136
5.416180539351312,-0.22561741887548978
5.418180606020201,0.08381688102151974
5.4201806726890895,-0.31115788769581715
5.422180739357978,-0.519124316108131
5.424180806026867,-0.2216519858416777
5.426180872695756,0.18523635371676567
5.428180939364645,-0.22846861902602528
5.430181006033534,-0.19183108893957446
5.432181072702424,0.1476161658097216
5.434181139371312,-0.25853836894295423
5.436181206040201,0.4401799054145973
5.43818127270909,0.07450586511119561
5.440181339377979,-0.23985360472150352
5.442181406046868,-0.34592084019923114
5.444181472715757,-0.36717955434771327
5.4461815393846456,-0.3545273794614853
5.448181606053535,-0.2658508170391991
5.450181672722424,-0.5018731401742094
5.452181739391313,-0.39937667977703967
5.454181806060202,-0.5433174129237323
5.456181872729091,-0.07046544963222445
5.45818193939798,-0.539647226492131
5.460182006066868,-0.32960984865584053
5.462182072735757,-0.38611184779803204
5.464182139404646,-0.7773814920969979
5.466182206073536,-0.6414703554125981
5.468182272742425,-0.6701656379564975
5.470182339411314,-0.4733687057471626
5.4721824060802025,-0.5033702158059912
5.474182472749091,-0.8776475765013427
5.47618253941798,-0.567027203037592
5.478182606086869,-0.5658377766649145
5.480182672755758,-0.7077837534388387
5.482182739424648,-1.1309426052121918
5.4841828060935365,-0.9201743298125035
5.486182872762425,-0.7644921545921635
5.488182939431314,-0.7525117791906969
5.490183006100203,-0.5021008277791394
5.492183072769092,-0.985796630124383
5.494183139437981,-1.2106083268753713
5.49618320610687,-0.7945104270984327
5.498183272775759,-1.2736101286850332
5.500183339444648,-0.934223715963281
5.502183406113537,-0.8499534165237225
5.504183472782426,-0.7238018369552921
5.506183539451315,-0.8545398346379665
5.508183606120204,-0.7566734725428423
5.5101836727890925,-1.0170558745902225
5.512183739457981,-1.308076843195633
5.514183806126871,-1.0720996939798997
5.51618387279576,-1.0996154976376833
5.518183939464649,-0.8333032706483414
5.520184006133538,-1.3954392571745333
5.5221840728024265,-1.0504265087584104
5.524184139471315,-1.2227375925216415
5.526184206140204,-1.2284427036195573
5.528184272809093,-1.0845873645695345
5.530184339477982,-1.2023217836461995
5.532184406146872,-1.119970799588108
5.5341844728157605,-1.0954143331357646
5.536184539484649,-1.5755535325055203
5.538184606153538,-0.9607784541032093
5.540184672822427,-1.2098244429644163
5.542184739491316,-1.2977495987078644
5.544184806160205,-0.9864310259804051
5.546184872829094,-1.251051753667737
5.548184939497983,-1.1355578408552818
5.550185006166872,-1.3279575059344055
5.552185072835761,-1.4044259641001615
5.55418513950465,-1.282915450820951
5.556185206173539,-1.3375190948147448
5.558185272842428,-1.285080261505134
5.5601853395113165,-1.346212929330497
5.562185406180205,-1.1176724268577223
5.564185472849095,-1.0350537731928449
5.566185539517984,-1.4731739907128398
5.568185606186873,-1.1992867913527414
5.570185672855762,-1.8307042612457909
5.572185739524651,-1.3300961933127233
5.574185806193539,-1.4899907476735874
5.576185872862428,-1.2641680008204494
5.578185939531317,-1.494533654374565
5.580186006200206,-1.431782814294688
5.582186072869096,-1.693703092947978
5.584186139537985,-1.3639897784200823
5.5861862062068735,-1.289075027137989
5.588186272875762,-1.2187298951061643
5.590186339544651,-1.5930774259448819
5.59218640621354,-1.497779818831736
5.594186472882429,-1.3286013144522715
5.596186539551318,-1.2018981857067748
5.5981866062202075,-1.6481214854697548
5.600186672889096,-1.8034603189373248
5.602186739557985,-1.2446198227555334
5.604186806226874,-1.7664465847824775
5.606186872895763,-1.3888714865161158
5.608186939564652,-1.6344813943365395
5.610187006233541,-1.3688956117011994
5.6121870729024295,-1.6122639452577798
5.614187139571319,-1.3335212970173083
5.616187206240208,-1.5619092708800173
5.618187272909097,-1.2812067734511579
5.620187339577986,-1.7948155910268853
5.622187406246875,-1.570571936226742
5.6241874729157635,-1.431912224337718
5.626187539584652,-1.565785426474065
5.628187606253541,-1.5730084896122436
5.630187672922431,-1.4964439556532343
5.63218773959132,-1.508622417655346
5.634187806260209,-1.5734240862098379
5.6361878729290975,-1.6092835717866005
5.638187939597986,-1.8200167252832664
5.640188006266875,-1.4404041187291385
5.642188072935764,-1.5361829630474362
5.644188139604653,-1.7253659344593881
5.646188206273542,-1.8347326946996105
5.6481882729424315,-1.4675186627484214
5.65018833961132,-1.5005396415765837
5.652188406280209,-1.546938212043723
5.654188472949098,-1.4914023696937386
5.656188539617987,-1.4454472791844593
5.658188606286876,-1.020070082640701
5.660188672955765,-1.4745914918487166
5.6621887396246535,-1.539438745186464
5.664188806293543,-1.6719916155514474
5.666188872962432,-1.4432758708471227
5.668188939631321,-1.5566502144276833
5.67018900630021,-1.6536599919095505
5.672189072969099,-1.432772849929987
5.6741891396379875,-1.4507117726170844
5.676189206306876,-1.2768279974659822
5.678189272975765,-1.060116720839368
5.680189339644655,-1.5073400473404703
5.682189406313544,-1.333902491512781
5.684189472982433,-1.235335618431033
5.686189539651322,-1.3093021503828441
5.68818960632021,-1.2166640696949234
5.690189672989099,-1.5788518602255803
5.692189739657988,-1.3061963348448455
5.694189806326877,-1.2078352590237418
5.696189872995766,-1.3606577261460155
5.698189939664656,-1.3556350582124077
5.7001900063335444,-1.6586179234313405
5.702190073002433,-1.3406150817221216
5.704190139671322,-1.2090667591083317
5.706190206340211,-1.425889290781444
5.7081902730091,-1.2264944281664152
5.710190339677989,-1.4771415519213926
5.712190406346878,-1.2526629632650874
5.714190473015767,-1.3726688903061182
5.716190539684656,-1.2930478070074078
5.718190606353545,-1.3313032437699182
5.720190673022434,-1.066523901599796
5.722190739691323,-1.1696062389986421
5.724190806360212,-0.9737627963435662
5.7261908730291005,-1.2024008454894426
5.728190939697989,-0.9462627157533747
5.730191006366879,-1.2632855422100695
5.732191073035768,-1.2421980841435574
5.734191139704657,-1.2701996754001903
5.736191206373546,-1.28954620350452
5.7381912730424345,-1.2678010508073467
5.740191339711323,-0.7913874044292419
5.742191406380212,-0.8520207680907914
5.744191473049101,-1.182955398193808
5.74619153971799,-0.9747517285874512
5.74819160638688,-0.7024704816458962
5.7501916730557685,-0.7663926220403401
5.752191739724657,-0.6229803952744386
5.754191806393546,-0.9583121097711645
5.756191873062435,-0.78927979850477
5.758191939731324,-0.6992266791504975
5.760192006400213,-0.5715311370890377
5.762192073069102,-0.8910969124077464
5.764192139737991,-0.9875787563507035
5.76619220640688,-0.8546467896814872
5.768192273075769,-1.173683743547163
5.770192339744658,-0.5793817676424584
5.772192406413547,-0.5506350772717415
5.774192473082436,-0.415430699028169
5.7761925397513245,-0.6868229603492643
5.778192606420213,-0.4691048413806631
5.780192673089103,-0.8256343497174751
5.782192739757992,-0.5342496996452575
5.784192806426881,-0.3228908168489072
5.78619287309577,-0.7019271084544147
5.7881929397646585,-0.5027499094798076
5.790193006433547,-0.4470773972878264
5.792193073102436,-0.6261585190078529
5.794193139771325,-0.514357857920538
5.796193206440215,-0.31566289859486385
5.798193273109104,-0.21884344222680485
5.800193339777993,-0.16577407649826162
5.802193406446881,-0.4312993278926667
5.80419347311577,-0.10861420087926776
5.806193539784659,-0.09690731290341617
5.808193606453548,-0.17661384548081785
5.810193673122437,0.05558727839410099
5.812193739791326,-0.5043279682461118
5.814193806460215,-0.2637744614506912
5.816193873129104,-0.5610831046361782
5.818193939797993,-0.1660260844112223
5.820194006466882,-0.2715267130724743
5.822194073135771,0.2237137223351429
5.82419413980466,-0.07807099252808615
5.826194206473549,0.4506639270874867
5.828194273142437,0.3396767995388357
5.830194339811327,-0.1296247178462322
5.832194406480216,0.005672768790347258
5.834194473149105,-0.1810946434847678
5.836194539817994,0.342724232384129
5.838194606486883,0.5743050018251544
5.8401946731557715,-0.029710701936791664
5.84219473982466,0.20417354210484218
5.844194806493549,0.03963669241633984
5.846194873162439,0.11556504275678696
5.848194939831328,0.38308928479777926
5.850195006500217,0.36522677296012773
5.8521950731691055,0.05593745847797485
5.854195139837994,0.3567014960074122
5.856195206506883,0.5803052959300656
5.858195273175772,0.5236314608563297
5.860195339844661,0.7924036598687817
5.86219540651355,0.575739218127034
5.8641954731824395,-0.1319075386230208
5.866195539851328,0.29635722334684617
5.868195606520217,0.33285621201945026
5.870195673189106,0.07513508347089326
5.872195739857995,0.5664196527969194
5.874195806526884,0.45806635632133247
5.876195873195773,0.4875074953121672
5.8781959398646615,0.3165706057700545
5.880196006533551,0.7095760424198053
5.88219607320244,0.5742147229288203
5.884196139871329,0.48947167665389313
5.886196206540218,0.4288919455311758
5.888196273209107,0.6679286680907394
5.8901963398779955,0.38395873984409334
5.892196406546884,0.725149059857125
5.894196473215773,0.24110238677314405
5.896196539884663,0.6229626997487895
5.898196606553552,0.9396764430560179
5.900196673222441,0.9190277699747161
5.9021967398913295,0.7990410132095634
5.904196806560218,0.9465753741209371
5.906196873229107,0.8554239932687618
5.908196939897996,0.5420227746162825
5.910197006566885,0.7763689973253851
5.912197073235775,0.580988330860742
5.914197139904664,0.49376535770205204
5.916197206573552,0.3405912562852369
5.918197273242441,0.857384406610118
5.92019733991133,1.094583857001934
5.922197406580219,1.2322996499143042
5.924197473249108,1.0238340958653924
5.926197539917997,0.7403440304264954
5.9281976065868855,1.3950121170575653
5.930197673255775,0.9401662669448478
5.932197739924664,0.9036433391811016
5.934197806593553,0.6942808599547454
5.936197873262442,1.1776083573192109
5.938197939931331,0.9030899346423221
5.94019800660022,1.3114854394938606
5.942198073269108,1.0681593541827696
5.944198139937997,1.0307092585930493
5.946198206606887,1.2189063483349352
5.948198273275776,1.2447958492747344
5.950198339944665,1.043071981957954
5.952198406613554,0.8874635934516916
5.9541984732824424,1.139938434978918
5.956198539951331,1.284250635212367
5.95819860662022,0.7178349954909986
5.960198673289109,1.2481795435724143
5.962198739957999,1.4284542587298499
5.964198806626888,1.5516722495976607
5.9661988732957765,1.3720988837300925
5.968198939964665,1.1375361028241529
5.970199006633554,1.3838468811482414
5.972199073302443,1.0350768644222257
5.974199139971332,1.3402888430034392
5.976199206640221,1.2741392479847884
5.97819927330911,1.2610516173194224
5.980199339977999,1.545001263557024
5.982199406646888,1.4019779331738376
5.984199473315777,1.5816593423176277
5.986199539984666,1.8217821691449814
5.988199606653555,1.6223026164727483
5.990199673322444,1.1722992292252858
5.9921997399913325,0.9622555649611888
5.994199806660221,1.3969058810656363
5.996199873329111,1.6047538433203143
5.998199939998,1.9052786070612224
6.000200006666889,1.4294930569236415
6.002200073335778,1.546188709830076
6.0042001400046665,1.2221687577601295
6.006200206673555,1.2095942386582292
6.008200273342444,1.0453458714046326
6.010200340011333,1.6533228762269294
6.012200406680223,1.751668433664967
6.014200473349112,1.4344971887399636
6.0162005400180005,1.2066396911941153
6.018200606686889,1.5664185257740912
6.020200673355778,1.832346179188816
6.022200740024667,1.494084547374015
6.024200806693556,1.487927274809781
6.026200873362445,1.2296079261738053
6.0282009400313346,1.6429279066128095
6.030201006700223,1.5255122722275358
6.032201073369112,1.3621499293114518
6.034201140038001,1.3766832190347758
6.03620120670689,1.4425219003617096
6.038201273375779,1.7888741597705284
6.040201340044668,1.155343145100448
6.0422014067135565,1.6659300719002832
6.044201473382445,1.2517504182330361
6.046201540051335,1.6423003206367148
6.048201606720224,1.4498705894644137
6.050201673389113,1.3533108283320106
6.052201740058002,1.5235331267336263
6.054201806726891,1.2589065658163785
6.056201873395779,1.5725456813407435
6.058201940064668,1.599798000093215
6.060202006733557,1.7538170998848075
6.062202073402447,1.4336308359155558
6.064202140071336,1.5673747592397358
6.066202206740225,1.307116266845457
6.0682022734091134,1.5123729164457167
6.070202340078002,1.3485732041984213
6.072202406746891,1.4081416260387343
6.07420247341578,1.6748141965458772
6.076202540084669,1.4253642802366921
6.078202606753559,1.5018001798219998
6.0802026734224475,1.2102690072663946
6.082202740091336,1.214965031024137
6.084202806760225,1.085892678844377
6.086202873429114,1.8257462274567606
6.088202940098003,1.5141115241703893
6.090203006766892,1.7807841161748716
6.092203073435781,1.4611190766729734
6.0942031401046695,1.3855721911178742
6.096203206773559,1.516274312738638
6.098203273442448,1.4130708171761852
6.100203340111337,1.3135040894653667
6.102203406780226,1.3783117679301258
6.104203473449115,1.2486103815622978
6.1062035401180035,1.1319590394111814
6.108203606786892,1.4206777093477791
6.110203673455781,1.4405839470819086
6.112203740124671,1.4348329998330278
6.11420380679356,0.944728207757217
6.116203873462449,1.1564641106342832
6.1182039401313375,0.9613185560681079
6.120204006800226,1.0911786028315422
6.122204073469115,1.4554527214185333
6.124204140138004,0.8387037198500322
6.126204206806893,1.0853466702188268
6.128204273475783,0.8854911324493818
6.1302043401446715,0.9786263010570239
6.13220440681356,1.1272736225036064
6.134204473482449,0.9351306375531863
6.136204540151338,1.441946325338088
6.138204606820227,1.129333839342519
6.140204673489116,1.1854342616522604
6.142204740158005,1.1520564080129267
6.1442048068268935,0.9098720752135554
6.146204873495783,1.010282146768976
6.148204940164672,0.8772779233042216
6.150205006833561,1.178280411252061
6.15220507350245,1.050955328806325
6.154205140171339,0.8542797344358513
6.1562052068402275,0.9382720086991044
6.158205273509116,0.7213869196181248
6.160205340178005,0.9276878399569085
6.162205406846895,0.9726415297238308
6.164205473515784,0.8655366495047015
6.166205540184673,0.7736699838626729
6.168205606853562,0.9564040361679285
6.17020567352245,0.8897201670430929
6.172205740191339,0.7001230196356573
6.174205806860228,0.6847205041050355
6.176205873529117,0.7192606293846292
6.178205940198007,0.6782196739001018
6.180206006866896,0.8944464300383629
6.182206073535784,0.7780612195300718
6.184206140204673,0.6266792132324585
6.186206206873562,0.6924960681854108
6.188206273542451,0.6485729724615324
6.19020634021134,0.677574707969726
6.192206406880229,0.417780521428372
6.1942064735491185,0.6983073264099061
6.196206540218007,0.525177268109644
6.198206606886896,0.5315467206258082
6.200206673555785,0.6189203661798679
6.202206740224674,0.6843327882993423
6.204206806893563,0.2879649534589234
6.206206873562452,0.5301586088827207
6.2082069402313405,0.18284445119296844
6.210207006900229,0.48752277411237577
6.212207073569119,0.4716179484110828
6.214207140238008,0.6253488567647408
6.216207206906897,0.30416226063601937
6.218207273575786,0.2781806201676076
6.2202073402446745,0.4164847340572792
6.222207406913563,0.33483472070876397
6.224207473582452,0.4606494301567392
6.226207540251341,0.03382689112430848
6.228207606920231,0.5392465742176216
6.23020767358912,0.08738195169952184
6.2322077402580085,0.11693194035534621
6.234207806926897,0.21620715031130283
6.236207873595786,0.15529175454247404
6.238207940264675,0.14822970219560738
6.240208006933564,0.26260045391926445
6.242208073602453,0.3635907089415757
6.2442081402713425,-0.11870182656745923
6.246208206940231,0.4369629748395295
6.24820827360912,-0.05172998790099677
6.250208340278009,-0.14329245402645155
6.252208406946898,-0.19323940271853227
6.254208473615787,-0.11169058047821313
6.256208540284676,-0.0969041202956005
6.2582086069535645,-0.36397934136997134
6.260208673622453,-0.017709440814965505
6.262208740291343,-0.06333264210794004
6.264208806960232,-0.04818040081058449
6.266208873629121,-0.33350170636773796
6.26820894029801,-0.3554402150888498
6.2702090069668985,-0.25277408199308066
6.272209073635787,-0.47962079256363127
6.274209140304676,-0.40547889298018824
6.276209206973565,-0.21982821586555895
6.278209273642455,-0.5126351384392601
6.280209340311344,-0.29606421593196924
6.282209406980233,-0.21276183665455026
6.284209473649121,-0.04231999481389653
6.28620954031801,-0.4862481013027409
6.288209606986899,-0.5535766518047531
6.290209673655788,-0.5984712281312914
6.292209740324677,-0.3020598503736184
6.294209806993567,-0.3602664660015289
6.296209873662455,-0.7994151030237222
6.298209940331344,-0.7392111120857899
6.300210007000233,-0.8931765983574591
6.302210073669122,-0.7517724637694259
6.304210140338011,-0.5333943457737998
6.3062102070069,-1.042442038721474
6.308210273675789,-0.9641279240897891
6.310210340344678,-1.3249070357170423
6.312210407013567,-0.62830060371782
6.314210473682456,-0.8707184019521773
6.316210540351345,-0.857377447070934
6.318210607020234,-0.8958423530599939
6.320210673689123,-0.9511311537160149
