time,lead1
0.0,-0.23209784630580121
0.002000066668888963,-0.07123124151140037
0.004000133337777926,-0.17417198214404514
0.006000200006666888,0.004827425556890544
0.008000266675555852,-0.3939622427530911
0.010000333344444815,0.2791301162359646
0.012000400013333776,0.23902284077405175
0.01400046668222274,0.03531219928202195
0.016000533351111703,-0.02673373450605826
0.018000600020000666,0.04543676933971638
0.02000066668888963,0.12979352378941642
0.022000733357778593,0.3311201219839135
0.024000800026667553,0.161547296163031
0.026000866695556516,0.35480814999915966
0.02800093336444548,-0.17306047185606066
0.030001000033334443,0.5927326116193803
0.032001066702223406,0.1508135401086691
0.034001133371112366,0.09653647064741172
0.03600120004000133,0.6494179956253515
0.03800126670889029,0.04400600222511697
0.04000133337777926,0.7444680400516397
0.04200140004666822,0.43545096551567586
0.044001466715557186,0.7518878914713385
0.046001533384446146,0.46344633487974884
0.048001600053335106,0.556057020456014
0.05000166672222407,0.5276198027339889
0.05200173339111303,0.4173870704128441
0.054001800060002,0.6702318361969435
0.05600186672889096,0.2962949164378055
0.058001933397779926,0.9758240464124761
0.060002000066668885,1.0747165879129994
0.06200206673555785,0.5521283020448712
0.06400213340444681,0.8176124354596432
0.06600220007333578,0.9993011309605189
0.06800226674222473,0.7117829071589484
0.0700023334111137,0.7191828662443183
0.07200240008000267,0.6246394845533123
0.07400246674889163,0.9001405467536125
0.07600253341778059,0.8168297830558241
0.07800260008666955,0.9105012241173249
0.08000266675555852,0.9020200837527361
0.08200273342444747,0.7383895783560501
0.08400280009333644,0.8079010758445864
0.0860028667622254,0.865849479339091
0.08800293343111437,0.72166137740866
0.09000300010000332,1.2356637520295914
0.09200306676889229,0.8039247012229191
0.09400313343778126,0.9254023940832053
0.09600320010667021,1.21886149980482
0.09800326677555918,1.1227284578387928
0.10000333344444814,0.5344387286983128
0.10200340011333711,1.2504943670269686
0.10400346678222606,1.000571580420581
0.10600353345111503,1.3019944654433033
0.108003600120004,1.3502765374010284
0.11000366678889296,1.0838579575603062
0.11200373345778192,0.9651881120138679
0.11400380012667088,1.1219180356500977
0.11600386679555985,1.024810433416282
0.1180039334644488,1.1628193386203887
0.12000400013333777,1.296963657992001
0.12200406680222674,1.03535562471187
0.1240041334711157,1.0572356244880687
0.12600420014000466,1.2972128513914887
0.12800426680889362,0.865912596077697
0.1300043334777826,1.3338121560549454
0.13200440014667156,1.2627969723111994
0.13400446681556052,1.2212991287985606
0.13600453348444946,1.4530556317183752
0.13800460015333843,1.5400314416469918
0.1400046668222274,0.8961420019600379
0.14200473349111636,1.7073685199098256
0.14400480016000533,1.4946209011590907
0.1460048668288943,1.3084726991644917
0.14800493349778326,1.5943633551237417
0.1500050001666722,1.0356256411864555
0.15200506683556117,1.258008949591497
0.15400513350445014,1.1423275293205306
0.1560052001733391,1.5453188177458363
0.15800526684222807,1.092730287543751
0.16000533351111704,1.516584168072349
0.162005400180006,1.5355608099496487
0.16400546684889494,1.6473745151065167
0.1660055335177839,1.371912322539031
0.16800560018667288,1.5614171687869363
0.17000566685556184,1.7785659374030693
0.1720057335244508,1.8037092684025455
0.17400580019333978,1.2626545919317778
0.17600586686222874,1.5200745317065183
0.17800593353111768,1.4473743646911523
0.18000600020000665,0.9442203035363451
0.18200606686889562,1.717730241790448
0.18400613353778458,1.4543611363401687
0.18600620020667355,1.4211439130045462
0.18800626687556252,1.5794530294905598
0.19000633354445148,1.5375746232571679
0.19200640021334042,1.741135364308143
0.1940064668822294,2.0100628121706605
0.19600653355111836,1.4180337555919915
0.19800660022000732,1.6106700876739155
0.2000066668888963,1.4044948314182981
0.20200673355778526,1.352515459028358
0.20400680022667422,1.3494412625887844
0.2060068668955632,1.2876351139917936
0.20800693356445213,1.6330023119962491
0.2100070002333411,1.7417339188064151
0.21200706690223006,1.556423249960905
0.21400713357111903,1.3730367364003642
0.216007200240008,1.5707725960981784
0.21800726690889696,1.6606236700149934
0.22000733357778593,1.2449514221627112
0.22200740024667487,1.1488523057251276
0.22400746691556384,1.5346608515728384
0.2260075335844528,1.6076704054379332
0.22800760025334177,1.1189616778543172
0.23000766692223074,1.7475074503999846
0.2320077335911197,1.6173768147636631
0.23400780026000867,1.4825585718010896
0.2360078669288976,1.6056879250317146
0.23800793359778658,1.464514761984924
0.24000800026667554,1.3340902964522423
0.2420080669355645,1.5906687469528822
0.24400813360445348,1.5112564854932127
0.24600820027334244,1.4208571077913947
0.2480082669422314,1.7862860815573367
0.25000833361112035,1.1678662897364727
0.2520084002800093,1.6034923183587217
0.2540084669488983,1.4607578699390087
0.25600853361778725,1.6155188265733742
0.2580086002866762,1.6747528412843382
0.2600086669555652,1.178228141018895
0.26200873362445415,1.0596915821810886
0.2640088002933431,1.354908393856099
0.2660088669622321,1.076522478715943
0.26800893363112105,1.3082642704644583
0.27000900030001,1.386570547027953
0.2720090669688989,1.0137105716758965
0.2740091336377879,0.9970693962327339
0.27600920030667686,1.3445551119146517
0.2780092669755658,1.4453782467751557
0.2800093336444548,1.1625460075424436
0.28200940031334376,1.327901992130636
0.28400946698223273,1.3678608438537512
0.2860095336511217,1.449694643094993
0.28800960032001066,0.9351223620739819
0.29000966698889963,0.8776966746709469
0.2920097336577886,1.3250823192232553
0.29400980032667756,1.4057658459156723
0.29600986699556653,1.1388937984942604
0.2980099336644555,1.4891463585440858
0.3000100003333444,1.009260513772789
0.3020100670022334,1.1348101462754385
0.30401013367112234,1.1460737114247643
0.3060102003400113,0.9534581262873418
0.3080102670089003,0.7686366800331477
0.31001033367778924,0.7276855896237135
0.3120104003466782,1.1597921214085398
0.3140104670155672,1.111566112445258
0.31601053368445614,0.9359740264684704
0.3180106003533451,1.2499678471742788
0.3200106670222341,1.4667933715594206
0.32201073369112304,1.4282344873288082
0.324010800360012,0.9273445115831315
0.326010867028901,0.8539479405419952
0.3280109336977899,0.9124913852700672
0.33001100036667885,0.8050810164503323
0.3320110670355678,1.2613103034024642
0.3340111337044568,1.5382037390138077
0.33601120037334575,0.6264476139860484
0.3380112670422347,0.9521118037036811
0.3400113337111237,1.1230564116490238
0.34201140038001265,0.6921452658995391
0.3440114670489016,0.8147221919666555
0.3460115337177906,0.869090105395981
0.34801160038667955,0.8710738248808376
0.3500116670555685,0.8539256917649244
0.3520117337244575,0.2025049631732001
0.35401180039334645,0.7999620808800388
0.35601186706223537,0.6861664948758855
0.35801193373112433,0.469424423640601
0.3600120004000133,0.5541888831179698
0.36201206706890227,0.37242678559964837
0.36401213373779123,0.7759874404227152
0.3660122004066802,0.5375320165047911
0.36801226707556917,0.6212017842190092
0.37001233374445813,0.5630547216521063
0.3720124004133471,0.6312756562611743
0.37401246708223607,0.6700900697018776
0.37601253375112503,0.7313331984360876
0.378012600420014,0.1676677509996085
0.38001266708890297,0.8995626612219737
0.38201273375779193,0.5964606206954566
0.38401280042668084,0.11243806458069394
0.3860128670955698,0.373907031880791
0.3880129337644588,0.2808024164346074
0.39001300043334775,0.3083475686766995
0.3920130671022367,0.14037445277609908
0.3940131337711257,0.32624173794197825
0.39601320044001465,-0.06859348421189557
0.3980132671089036,0.1061878468348379
0.4000133337777926,0.1567215372790453
0.40201340044668155,-0.1636551209080901
0.4040134671155705,0.5023536768817836
0.4060135337844595,0.21722436228545824
0.40801360045334845,-0.0075957700632129505
0.4100136671222374,-0.43210707532973897
0.4120137337911264,-0.2063581458187158
0.4140138004600153,-0.3817550123530917
0.41601386712890426,-0.015180435558966556
0.4180139337977932,-0.1910447740826016
0.4200140004666822,0.07399986282595922
0.42201406713557116,-0.2604754971442979
0.4240141338044601,-0.16159865275123458
0.4260142004733491,0.12512929744950763
0.42801426714223806,-0.4201226195649347
0.430014333811127,0.06022535218751454
0.432014400480016,-0.014038685576297921
0.43401446714890496,-0.586378082606403
0.4360145338177939,-0.4570622434138109
0.4380146004866829,-0.3541943442299906
0.44001466715557186,0.22808860423806038
0.44201473382446077,-0.5666181504781735
0.44401480049334974,-0.05481657339552548
0.4460148671622387,-0.4122639251615443
0.44801493383112767,-0.35246699091384276
0.45001500050001664,-0.3058843597697292
0.4520150671689056,-0.25763375796049487
0.45401513383779457,-0.5529939562357227
0.45601520050668354,-0.6090903231010414
0.4580152671755725,-0.1630620999953069
0.46001533384446147,-0.04753157614751469
0.46201540051335044,-0.48310279124371486
0.4640154671822394,-0.43606386816751674
0.46601553385112837,-0.6777441810733003
0.46801560052001734,-0.8702059420317367
0.47001566718890625,-0.6933982697397184
0.4720157338577952,-0.4651190119991253
0.4740158005266842,-0.5661527282707399
0.47601586719557315,-0.5645549407065127
0.4780159338644621,-0.4966433982248229
0.4800160005333511,-0.9399277335799793
0.48201606720224005,-0.8942321123981406
0.484016133871129,-0.6889075424442449
0.486016200540018,-0.9144167899495786
0.48801626720890695,-0.6348814453721711
0.4900163338777959,-0.43422991510810705
0.4920164005466849,-1.1142275271267783
0.49401646721557385,-1.0859427327251174
0.4960165338844628,-0.8895023623921362
0.49801660055335173,-0.7562566899011112
0.5000166672222407,-1.1324080536661807
0.5020167338911297,-1.2192940986871683
0.5040168005600186,-0.6634638143999814
0.5060168672289076,-1.0224956441877204
0.5080169338977966,-0.8038908098322485
0.5100170005666855,-1.0005125521358231
0.5120170672355745,-1.2504962675028655
0.5140171339044635,-0.8992576249443646
0.5160172005733524,-1.431678642096869
0.5180172672422414,-1.1042882431625256
0.5200173339111304,-1.059919957737323
0.5220174005800193,-1.1608309013345428
0.5240174672489083,-1.0212699471407538
0.5260175339177973,-1.196028475246016
0.5280176005866862,-1.484906124849065
0.5300176672555752,-0.9546925845487793
0.5320177339244642,-1.4737028418237053
0.5340178005933531,-0.9480235513489979
0.5360178672622421,-0.8545962065872057
0.5380179339311311,-1.3514168437796554
0.54001800060002,-1.3411090355946875
0.5420180672689089,-1.160834122195368
0.5440181339377979,-1.4266426998785964
0.5460182006066868,-1.2008645922705792
0.5480182672755758,-1.2852324136870348
0.5500183339444648,-1.1746277945433325
0.5520184006133537,-1.2436214821304634
0.5540184672822427,-1.201690808002018
0.5560185339511317,-1.379756119478274
0.5580186006200206,-0.938604791089984
0.5600186672889096,-1.2406077755182885
0.5620187339577986,-1.4361899700001843
0.5640188006266875,-1.4025256890837945
0.5660188672955765,-1.482849867203947
0.5680189339644655,-1.2618148133226743
0.5700190006333544,-1.085964235284768
0.5720190673022434,-1.3478680658032456
0.5740191339711324,-1.9676076829373192
0.5760192006400213,-1.667781896923933
0.5780192673089103,-1.3077859744674112
0.5800193339777993,-1.430926693956773
0.5820194006466882,-1.4639753036090375
0.5840194673155772,-1.1206267269744496
0.5860195339844662,-1.3808387271417248
0.5880196006533551,-1.4863601345450195
0.5900196673222441,-1.5109913864752782
0.5920197339911331,-1.5686546257845857
0.594019800660022,-1.7674465611872112
0.596019867328911,-1.1696974139981373
0.5980199339977998,-1.4163143064940127
0.6000200006666888,-1.5305677067340557
0.6020200673355778,-1.0623970875689068
0.6040201340044667,-1.7718508270122433
0.6060202006733557,-1.6976799659820587
0.6080202673422447,-1.5801650309700173
0.6100203340111336,-1.081490479334288
0.6120204006800226,-1.2310264247340592
0.6140204673489116,-1.4223182924782662
0.6160205340178005,-1.6988512530361577
0.6180206006866895,-1.251594366189272
0.6200206673555785,-1.3633472069360764
0.6220207340244674,-1.654370445925195
0.6240208006933564,-1.6224312626911404
0.6260208673622454,-1.4366737427328522
0.6280209340311343,-1.44325103693968
0.6300210007000233,-1.3917547157271928
0.6320210673689123,-1.31598509563361
0.6340211340378012,-1.5713300728446686
0.6360212007066902,-1.22523800795002
0.6380212673755792,-1.2759120768025825
0.6400213340444681,-1.521405979232629
0.6420214007133571,-0.9216686935347181
0.6440214673822461,-1.6416685245608114
0.646021534051135,-1.5672564431589953
0.648021600720024,-1.5166500274815358
0.650021667388913,-1.4428091307370736
0.652021734057802,-1.4649444660656028
0.6540218007266909,-1.2103410443771239
0.6560218673955798,-1.3936982497018282
0.6580219340644687,-1.5083954783030231
0.6600220007333577,-1.4601034626891503
0.6620220674022467,-1.2638726670432054
0.6640221340711356,-1.2351425045830924
0.6660222007400246,-1.1839738555154031
0.6680222674089136,-1.3737729582021778
0.6700223340778025,-1.6004040826606842
0.6720224007466915,-1.3653688542220228
0.6740224674155805,-1.2032649870062266
0.6760225340844694,-1.3587383257185472
0.6780226007533584,-1.4356770541919421
0.6800226674222474,-1.412563250139858
0.6820227340911363,-1.2453563070398892
0.6840228007600253,-0.8931536496326353
0.6860228674289143,-1.336048455688783
0.6880229340978032,-1.212761160834041
0.6900230007666922,-1.2735287070970769
0.6920230674355812,-1.233312931555351
0.6940231341044701,-1.149736657969263
0.6960232007733591,-1.2773552261630932
0.6980232674422481,-1.7739507675753776
0.700023334111137,-1.335661729444956
0.702023400780026,-1.1599759828996077
0.704023467448915,-1.2638424624300197
0.7060235341178039,-1.2684601420889432
0.7080236007866929,-1.1436141380876836
0.7100236674555819,-1.113638888888304
0.7120237341244707,-1.0287167711345873
0.7140238007933597,-0.9997736850471797
0.7160238674622487,-1.2341080434724325
0.7180239341311376,-1.3105178119465943
0.7200240008000266,-1.0412304242392585
0.7220240674689156,-1.4331004743393785
0.7240241341378045,-1.2855003288494977
0.7260242008066935,-0.7888537013722918
0.7280242674755825,-0.8236221282734935
0.7300243341444714,-0.6731923350500741
0.7320244008133604,-1.2205955210852668
0.7340244674822494,-0.892403704034237
0.7360245341511383,-0.989868526155955
0.7380246008200273,-0.8255852208666692
0.7400246674889163,-0.6470017745989098
0.7420247341578052,-0.7846890977054857
0.7440248008266942,-1.2888481906427192
0.7460248674955832,-1.1712236068013744
0.7480249341644721,-0.8462060899092283
0.7500250008333611,-1.1155067553929463
0.7520250675022501,-1.0975869737641673
0.754025134171139,-0.8632098051635652
0.756025200840028,-0.7822526209478109
0.758025267508917,-0.6026303989978204
0.7600253341778059,-0.9193027575022426
0.7620254008466949,-0.4272305784276621
0.7640254675155839,-0.7498518191295367
0.7660255341844728,-0.6030934527318739
0.7680256008533617,-0.7509825962109831
0.7700256675222507,-0.9431209757169124
0.7720257341911396,-0.6994686268451132
0.7740258008600286,-0.7169752578249771
0.7760258675289176,-0.3047064705596504
0.7780259341978065,-0.6814294264089041
0.7800260008666955,-0.6876810982838593
0.7820260675355845,-0.41936493961112176
0.7840261342044734,-0.5819563714288998
0.7860262008733624,-0.7743186672656628
0.7880262675422514,-0.4881968349566375
0.7900263342111403,-0.4362352337264006
0.7920264008800293,-0.7712401976545824
0.7940264675489183,-0.51291903982704
0.7960265342178072,-0.26862268617754215
0.7980266008866962,-0.23403783354422503
0.8000266675555852,-0.1485188397333841
0.8020267342244741,-0.6242542675369518
0.8040268008933631,-0.655952547556124
0.8060268675622521,-0.018765240315464615
0.808026934231141,-0.10406922614770375
0.81002700090003,-0.10308784395370535
0.812027067568919,-0.08444529058380504
0.8140271342378079,-0.3349868218278494
0.8160272009066969,-0.27716051685477067
0.8180272675755859,0.18560811142623662
0.8200273342444748,-0.08289046293927468
0.8220274009133638,-0.18118659500896028
0.8240274675822528,0.12003596055296864
0.8260275342511416,-0.1545369238345307
0.8280276009200306,-0.0630788941385324
0.8300276675889195,-0.32603795207221525
0.8320277342578085,0.08847363409074607
0.8340278009266975,0.19126632910868405
0.8360278675955864,-0.16278703672925032
0.8380279342644754,0.25624737586528124
0.8400280009333644,0.14455901590725295
0.8420280676022533,0.011306448017020285
0.8440281342711423,0.12158590543532158
0.8460282009400313,0.10804775534874317
0.8480282676089202,0.005270616850504339
0.8500283342778092,0.6472387312395
0.8520284009466982,0.07870246770709349
0.8540284676155872,0.24081097478392377
0.8560285342844761,0.499229764556048
0.8580286009533651,0.12621156552777335
0.860028667622254,0.31130625264044093
0.862028734291143,0.5436322517361759
0.864028800960032,0.4147601653466863
0.866028867628921,0.043228475607691885
0.8680289342978099,0.5429831104023994
0.8700290009666989,0.3206454798192865
0.8720290676355879,0.5780095473521013
0.8740291343044768,0.20139491950850852
0.8760292009733658,0.7090507248326741
0.8780292676422548,0.5670779942407698
0.8800293343111437,0.29013917065096584
0.8820294009800326,0.713914195574468
0.8840294676489215,0.43124973329669114
0.8860295343178105,0.48587546501946627
0.8880296009866995,0.23838209408208216
0.8900296676555884,0.821725365153303
0.8920297343244774,0.5763798959825792
0.8940298009933664,0.6832613101134122
0.8960298676622553,0.7822552815178646
0.8980299343311443,0.8389267723806327
0.9000300010000333,0.7457979952943461
0.9020300676689222,0.5978178805358695
0.9040301343378112,0.9356299794798754
0.9060302010067002,0.7508630425791775
0.9080302676755891,0.6841226289322169
0.9100303343444781,0.6800570316199003
0.9120304010133671,0.7276604195499179
0.914030467682256,0.9126271985575012
0.916030534351145,1.0141243245891332
0.918030601020034,1.1555911863452109
0.9200306676889229,1.2184806157357642
0.9220307343578119,1.2297317078912462
0.9240308010267009,0.6964480054490678
0.9260308676955898,0.8032463472686375
0.9280309343644788,0.7090671320031013
0.9300310010333678,1.0371676577278202
0.9320310677022567,0.8585406794606785
0.9340311343711457,0.9238882973674429
0.9360312010400347,0.920709470339071
0.9380312677089236,1.277050405889739
0.9400313343778125,1.1983747901331778
0.9420314010467015,1.1329428946089934
0.9440314677155904,1.2934990363708236
0.9460315343844794,1.02319584692574
0.9480316010533684,1.163694054349676
0.9500316677222573,1.0948701175758682
0.9520317343911463,0.9982714608020675
0.9540318010600353,1.0717791415047402
0.9560318677289242,1.3774200499732177
0.9580319343978132,1.0706267130631135
0.9600320010667022,1.3695002417354931
0.9620320677355911,1.011657481758017
0.9640321344044801,1.420789425210681
0.9660322010733691,1.3147464988092032
0.968032267742258,1.228195844779278
0.970032334411147,1.2971724972295777
0.972032401080036,1.2116249655804738
0.9740324677489249,1.4067358530899066
0.9760325344178139,1.4604813051543442
0.9780326010867029,1.0062635548011203
0.9800326677555918,1.6208905772598434
0.9820327344244808,1.5215456984902886
0.9840328010933698,1.5629399422313406
0.9860328677622587,1.315564088001398
0.9880329344311477,1.3000103976327244
0.9900330011000367,1.7189282191319948
0.9920330677689256,1.6269839208918075
0.9940331344378146,1.3403107557920368
0.9960332011067035,1.4247758234731738
0.9980332677755924,1.2869730036498217
1.0000333344444814,1.779357275305581
1.0020334011133705,1.4750098414705368
1.0040334677822593,1.380810735001008
1.0060335344511484,1.239582895858079
1.0080336011200373,1.4175082092231144
1.0100336677889263,1.231055825730508
1.0120337344578152,1.8090170463466335
1.0140338011267043,1.3037603794768102
1.0160338677955931,1.2634364893039183
1.0180339344644822,1.6881087399038341
1.020034001133371,1.441526854454022
1.0220340678022601,1.1573228709026644
1.024034134471149,1.502263452096914
1.0260342011400378,1.340677395217446
1.028034267808927,1.4065338450380949
1.0300343344778158,1.389464290036085
1.0320344011467049,1.394996999791534
1.0340344678155937,1.4412351811174162
1.0360345344844828,1.3358862951402153
1.0380346011533716,1.4487742303796038
1.0400346678222607,1.6525472127341194
1.0420347344911496,1.2600475260750974
1.0440348011600387,1.7929409832634793
1.0460348678289275,1.0580083632171837
1.0480349344978166,1.3630584984134977
1.0500350011667055,1.2634564964009734
1.0520350678355945,1.7617576962597858
1.0540351345044834,1.7223870975903308
1.0560352011733725,1.5829909680060665
1.0580352678422613,1.7066018812184032
1.0600353345111504,1.1951217669255003
1.0620354011800393,1.683481283515783
1.0640354678489283,1.31731727331881
1.0660355345178172,1.6810113613743036
1.0680356011867063,1.6509108341188634
1.0700356678555951,1.5570883881690634
1.0720357345244842,1.3863143131116629
1.074035801193373,1.3065075221446139
1.0760358678622621,1.3292682016303798
1.078035934531151,1.198494012989482
1.08003600120004,1.1088070221656419
1.082036067868929,1.682804126541258
1.0840361345378178,1.3909519925753426
1.0860362012067069,1.3471369528964723
1.0880362678755957,1.2534019162937655
1.0900363345444848,1.6099484671308733
1.0920364012133736,1.346927244574996
1.0940364678822627,1.4142772228737763
1.0960365345511516,1.5905412399674552
1.0980366012200407,1.2504937603673691
1.1000366678889295,1.2509797364826114
1.1020367345578186,1.350181025688425
1.1040368012267074,1.503599651134108
1.1060368678955965,1.3198951024552668
1.1080369345644854,1.318947945040449
1.1100370012333745,1.2051175269724927
1.1120370679022633,1.4250524073401774
1.1140371345711524,1.2413990911338753
1.1160372012400412,1.7151262031587517
1.1180372679089303,1.484888156505233
1.1200373345778192,1.1537008025977926
1.1220374012467083,1.5318032870902616
1.124037467915597,0.967594233791573
1.1260375345844862,1.3547755156361574
1.128037601253375,1.1082620059470378
1.1300376679222641,0.9308329895622491
1.132037734591153,1.0626042070805486
1.134037801260042,1.1184257385281495
1.136037867928931,1.2897211190833695
1.1380379345978198,1.3160910671650472
1.1400380012667088,1.3696024721588753
1.1420380679355977,0.9111673303894258
1.1440381346044868,1.192715001487591
1.1460382012733756,1.3278836423521287
1.1480382679422647,1.115669577985988
1.1500383346111536,1.0612121949547204
1.1520384012800426,1.1733551359013088
1.1540384679489315,1.093235604787158
1.1560385346178206,1.0212408521161902
1.1580386012867094,0.9082880115550236
1.1600386679555985,1.4300813735869222
1.1620387346244874,1.0441579502360605
1.1640388012933764,0.8553670105312238
1.1660388679622653,0.5121714724046282
1.1680389346311544,0.9410536700117478
1.1700390013000432,0.7727560599508705
1.1720390679689323,1.2120725568653195
1.1740391346378212,0.6320375364747489
1.1760392013067102,0.7505839804250005
1.178039267975599,0.613498889209344
1.1800393346444882,0.7589744871495903
1.182039401313377,0.8115303850734537
1.1840394679822661,0.8753079938547451
1.186039534651155,0.6000292915935622
1.188039601320044,0.5678054390596449
1.190039667988933,1.0886008211036045
1.192039734657822,0.544984314973544
1.1940398013267108,0.22799420059887154
1.1960398679955997,0.6462301628079039
1.1980399346644888,0.4290202868229427
1.2000400013333776,0.6846639969452413
1.2020400680022667,0.6870988661832741
1.2040401346711556,0.12050011284229484
1.2060402013400446,0.562814888690028
1.2080402680089335,0.5042748148231947
1.2100403346778226,0.323452621700146
1.2120404013467114,0.46053563778159473
1.2140404680156005,0.6194589865787754
1.2160405346844894,0.47196756270370605
1.2180406013533784,0.29016530481370684
1.2200406680222673,0.18846352686408172
1.2220407346911564,0.4310804854387701
1.2240408013600452,-0.02788067825189583
1.2260408680289343,0.296800793256263
1.2280409346978232,0.3107539865183194
1.2300410013667122,0.38063909385694866
1.232041068035601,0.5053534406095743
1.2340411347044902,0.2399878078470323
1.236041201373379,0.4994109971139939
1.238041268042268,0.2770746413575663
1.240041334711157,0.24424405955523257
1.242041401380046,-0.29656242447400116
1.244041468048935,0.11716298601286224
1.246041534717824,0.024009391566665067
1.2480416013867128,0.1661569544314904
1.250041668055602,-0.05230331630581096
1.2520417347244908,0.01223524636084422
1.2540418013933796,0.2545392453245999
1.2560418680622687,-0.11164277969729779
1.2580419347311576,-0.1582433727097466
1.2600420014000466,-0.10949252734413881
1.2620420680689355,0.039498340050825115
1.2640421347378246,-0.04162616707454096
1.2660422014067134,0.05259652027389816
1.2680422680756025,-0.5829517008138911
1.2700423347444914,-0.336170210799364
1.2720424014133804,-0.791370024135606
1.2740424680822693,-0.2570532772091821
1.2760425347511584,-0.5056456819668458
1.2780426014200472,-0.3897980152555282
1.2800426680889363,-0.3245148252143946
1.2820427347578252,-0.34627028521141157
1.2840428014267142,-0.9129536968553269
1.286042868095603,-0.19552294440401835
1.2880429347644922,-0.19205750288325474
1.290043001433381,-0.6372753872409334
1.29204306810227,-0.3857235807216593
1.294043134771159,-0.3351414163949501
1.296043201440048,-0.5244035977932048
1.2980432681089369,-0.9042831391358238
1.300043334777826,-0.5842314148949888
1.3020434014467148,-0.7380971024470205
1.304043468115604,-0.5421765878757513
1.3060435347844928,-0.4520154252900537
1.3080436014533818,-0.7759713492417316
1.3100436681222707,-0.39625778940752365
1.3120437347911595,-1.1230864368873927
1.3140438014600486,-0.40865294797655705
1.3160438681289375,-0.7646988784118539
1.3180439347978266,-0.9525029385925929
1.3200440014667154,-0.9970674839450739
1.3220440681356045,-0.40722947452675773
1.3240441348044933,-1.1932184374742316
1.3260442014733824,-1.0738952706622427
1.3280442681422713,-0.6216737846817539
1.3300443348111604,-0.6602604182847643
1.3320444014800492,-0.9270828534874225
1.3340444681489383,-1.2842620604392665
1.3360445348178271,-1.0352284163384642
1.3380446014867162,-0.6707659323794612
1.340044668155605,-0.7800555464593063
1.3420447348244942,-0.8692517457225883
1.344044801493383,-0.7609874709222759
1.346044868162272,-1.1803037647194283
1.348044934831161,-0.9127130759058377
1.35004500150005,-0.7719058448805884
1.3520450681689389,-1.1205881001189248
1.354045134837828,-1.150561326692984
1.3560452015067168,-1.1088191574279052
1.358045268175606,-1.1938314009057422
1.3600453348444947,-1.4848780622852735
1.3620454015133838,-1.1839954744600338
1.3640454681822727,-1.0856636892333125
1.3660455348511615,-0.9796026548771622
1.3680456015200506,-1.4214572549020978
1.3700456681889395,-1.3031124786976485
1.3720457348578285,-1.5202757368825979
1.3740458015267174,-0.8143001783467934
1.3760458681956065,-1.0527340405548464
1.3780459348644953,-1.4198665255988046
1.3800460015333844,-1.5316434292216154
1.3820460682022733,-1.2468867802147972
1.3840461348711623,-0.9652432500292004
1.3860462015400512,-1.6148936418302915
1.3880462682089403,-1.5939194152394283
1.3900463348778291,-1.3348979979928997
1.3920464015467182,-0.8790132468164782
1.394046468215607,-1.1278721519502817
1.3960465348844961,-1.355210897729689
1.398046601553385,-1.3998811310848385
1.400046668222274,-1.590036283421185
1.402046734891163,-1.3372994265460327
1.404046801560052,-1.2274370906823981
1.4060468682289409,-1.26752988854805
1.40804693489783,-1.386554079424656
1.4100470015667188,-1.4167842716686678
1.4120470682356079,-1.3915173810125907
1.4140471349044967,-1.1691693333463786
1.4160472015733858,-1.5269006819397517
1.4180472682422747,-1.4165480035606621
1.4200473349111637,-1.1300138510564885
1.4220474015800526,-1.6559313579402057
1.4240474682489415,-1.43748060482856
1.4260475349178305,-1.444862013759493
1.4280476015867194,-1.2481290904593871
1.4300476682556085,-1.9227883657057128
1.4320477349244973,-1.2929658469696514
1.4340478015933864,-1.1880241990191456
1.4360478682622753,-1.6047174563845796
1.4380479349311643,-1.3356712348985336
1.4400480016000532,-0.8917524640470136
1.4420480682689423,-1.3888558236092856
1.4440481349378311,-1.563612164928784
1.4460482016067202,-0.9606719035965203
1.448048268275609,-1.6306293948660977
1.4500483349444981,-1.7444818361698418
1.452048401613387,-1.547199630525904
1.454048468282276,-1.1104592534455098
1.456048534951165,-1.4254629622916877
1.458048601620054,-1.4847110343504522
1.4600486682889429,-1.5760849623607285
1.462048734957832,-1.5208151120927687
1.4640488016267208,-1.7015110181561666
1.4660488682956099,-1.6668970286784806
1.4680489349644987,-1.5479293553089344
1.4700490016333878,-1.653439752713896
1.4720490683022767,-1.1881822855092585
1.4740491349711657,-1.4119895385834473
1.4760492016400546,-1.5513941017896355
1.4780492683089437,-1.1254118472450827
1.4800493349778325,-1.5795283468655197
1.4820494016467214,-1.382565427883801
1.4840494683156105,-0.9139130421363644
1.4860495349844993,-1.3749411830968163
1.4880496016533884,-1.4417244149205863
1.4900496683222773,-1.2315938883301532
1.4920497349911663,-1.1219169626879026
1.4940498016600552,-1.0621174870935661
1.4960498683289443,-1.3908703461397687
1.4980499349978331,-1.5812272744600986
1.5000500016667222,-1.520436499236455
1.502050068335611,-1.37480063382905
1.5040501350045001,-1.4757559591877087
1.506050201673389,-1.424787526210404
1.508050268342278,-1.2361661246398892
1.510050335011167,-1.5517599546903766
1.512050401680056,-1.7203445410475946
1.5140504683489449,-1.3244841341074636
1.516050535017834,-1.4846352632789972
1.5180506016867228,-1.4497796633015545
1.5200506683556119,-1.1428000951958381
1.5220507350245007,-1.5264207657190547
1.5240508016933898,-1.4616059749582233
1.5260508683622787,-1.309850886289899
1.5280509350311677,-1.0051185764430683
1.5300510017000566,-1.669795788322621
1.5320510683689457,-1.0936185230567756
1.5340511350378345,-1.2605756666916021
1.5360512017067234,-1.1522623418371016
1.5380512683756125,-1.2358267825413305
1.5400513350445013,-1.328535582630689
1.5420514017133904,-1.7347320931010768
1.5440514683822792,-0.9946961794090738
1.5460515350511683,-1.4692656964961295
1.5480516017200572,-0.991522707131112
1.5500516683889463,-0.6883859364658537
1.5520517350578351,-1.4410231374574105
1.5540518017267242,-1.1128231029059203
1.556051868395613,-1.2266601676857656
1.5580519350645021,-0.9810574796690408
1.560052001733391,-0.8685844496384403
1.56205206840228,-0.7640808944074666
1.564052135071169,-1.244926491009205
1.566052201740058,-0.6476554546918112
1.5680522684089468,-1.0425778431829642
1.570052335077836,-1.2693874643560423
1.5720524017467248,-1.0363179109360745
1.5740524684156139,-1.14215681559834
1.5760525350845027,-0.7416001535464917
1.5780526017533918,-0.7561312855881571
1.5800526684222806,-0.5392332458465401
1.5820527350911697,-0.7058408394082245
1.5840528017600586,-0.9993092204321846
1.5860528684289477,-0.5886815472631617
1.5880529350978365,-0.758203033231376
1.5900530017667256,-0.6525196747321365
1.5920530684356144,-0.5001486263618903
1.5940531351045033,-0.9471304094536688
1.5960532017733924,-0.6674257551373588
1.5980532684422812,-0.6607354734122811
1.6000533351111703,-0.6844658747440587
1.6020534017800592,-0.632378089679412
1.6040534684489482,-0.5160118101334656
1.606053535117837,-0.6080303928227965
1.6080536017867262,-0.949342218547444
1.610053668455615,-0.5871981150172557
1.6120537351245041,-0.5491323571887471
1.614053801793393,-0.8470524053400075
1.616053868462282,-0.8404733340318594
1.618053935131171,-0.8534039386235083
1.62005400180006,-0.3276352298166061
1.6220540684689488,-0.7934359649045182
1.624054135137838,-0.3415416874780127
1.6260542018067268,-0.3419703157097861
1.6280542684756159,-0.4419969579733868
1.6300543351445047,-0.1662324580191023
1.6320544018133938,-0.8495693888232143
1.6340544684822826,-0.8007975016738069
1.6360545351511717,-0.43677921386873564
1.6380546018200606,-0.5912801208013833
1.6400546684889497,-0.2824537724832925
1.6420547351578385,-0.05368207318040502
1.6440548018267276,0.3248974902255507
1.6460548684956164,-0.26627193574272506
1.6480549351645055,-0.44882459710233835
1.6500550018333944,-0.3939559435502374
1.6520550685022832,-0.11732202506013137
1.6540551351711723,0.22841067965837145
1.6560552018400612,-0.26613527447398877
1.6580552685089502,0.03237136613251945
1.660055335177839,0.13154024783536344
1.6620554018467282,-0.35275603023480195
1.664055468515617,0.08218876676918772
1.666055535184506,0.38216936954982444
1.668055601853395,-0.434266829712446
1.670055668522284,0.2001918329011611
1.672055735191173,0.19764411034555276
1.674055801860062,-0.04987861289925796
1.6760558685289508,-0.09125970671430962
1.67805593519784,0.0631507509337892
1.6800560018667288,0.23941471211985113
1.6820560685356178,0.42639125275923884
1.6840561352045067,0.02425401841331426
1.6860562018733958,0.3416418627317355
1.6880562685422846,0.33343576729486296
1.6900563352111737,0.4714802476927691
1.6920564018800626,0.11658786438554045
1.6940564685489516,-0.012559203481791736
1.6960565352178405,0.09048366528505372
1.6980566018867296,0.23934325070573798
1.7000566685556184,0.3800530536985414
1.7020567352245075,0.36222351621372956
1.7040568018933964,0.4072068631509462
1.7060568685622854,0.35499278515581295
1.7080569352311743,0.20454960441517178
1.7100570019000632,0.1750693451726738
1.7120570685689522,0.45807764237445053
1.714057135237841,0.31209288244845534
1.7160572019067302,0.48306135226679237
1.718057268575619,0.4267410656452963
1.720057335244508,0.45691485076649463
1.722057401913397,0.4528262432203946
1.724057468582286,0.46969380993763893
1.726057535251175,0.3764140163104932
1.728057601920064,0.7946831562917749
1.7300576685889528,0.7967733444598712
1.732057735257842,0.33178176965182365
1.7340578019267308,0.7194573579630107
1.7360578685956198,1.004789505157372
1.7380579352645087,0.45163818904029096
1.7400580019333978,0.9627105750473975
1.7420580686022866,0.7534977036529623
1.7440581352711757,0.9296947832499318
1.7460582019400646,1.2703469208512312
1.7480582686089536,0.7603976886088619
1.7500583352778425,0.8462261222420099
1.7520584019467316,0.8884542814000506
1.7540584686156204,0.9065997249283199
1.7560585352845095,0.9655484659261235
1.7580586019533984,1.1701535304778399
1.7600586686222874,1.1232993417800003
1.7620587352911763,0.8495472851197586
1.7640588019600651,0.991052107645321
1.7660588686289542,1.214596588989221
1.768058935297843,0.9447194760455374
1.7700590019667322,1.049075235477994
1.772059068635621,0.8568028219004751
1.77405913530451,1.0345596280412914
1.776059201973399,0.7645108714302666
1.778059268642288,0.8445454499610281
1.7800593353111769,1.047397824177674
1.782059401980066,1.0124484294833187
1.7840594686489548,0.980712822545234
1.786059535317844,0.9539375035201677
1.7880596019867327,1.2245930291709746
1.7900596686556218,1.0218353182424855
1.7920597353245107,1.4327514444932878
1.7940598019933998,1.565151112408055
1.7960598686622886,1.1249004865605046
1.7980599353311777,1.0318323511905974
1.8000600020000666,1.0360586122379873
1.8020600686689556,1.5639157637012713
1.8040601353378445,0.9976771216126119
1.8060602020067336,1.2062083521684472
1.8080602686756224,1.4431862692524315
1.8100603353445115,1.1582256259297232
1.8120604020134004,1.284527046206134
1.8140604686822894,1.5914708926969956
1.8160605353511783,1.259443102947755
1.8180606020200674,1.3344138879516672
1.8200606686889562,1.366795945379075
1.822060735357845,1.180112555023502
1.8240608020267342,1.1772418349989626
1.826060868695623,1.2573950361065531
1.828060935364512,1.0358246061622567
1.830061002033401,1.3964558397386795
1.83206106870229,1.4964360174883542
1.8340611353711789,1.6948317759011655
1.836061202040068,1.2965050402719027
1.8380612687089568,1.6262043107355175
1.8400613353778459,1.2139878622440694
1.8420614020467347,1.2182239367289898
1.8440614687156238,1.5275142103212134
1.8460615353845127,1.574565637203056
1.8480616020534018,1.6416774974655837
1.8500616687222906,1.6489906722569574
1.8520617353911797,1.5742301066242776
1.8540618020600685,1.4848858719297884
1.8560618687289576,1.4756149448960112
1.8580619353978465,1.2639425306780614
1.8600620020667356,1.1500561456816758
1.8620620687356244,1.31556584807521
1.8640621354045135,1.4492061227078072
1.8660622020734023,1.1969871815128605
1.8680622687422914,1.4741820790011078
1.8700623354111803,1.2987719427302933
1.8720624020800694,1.6684963151780237
1.8740624687489582,2.0982542565044238
1.8760625354178473,1.4544824274214516
1.8780626020867361,1.188267076517651
1.880062668755625,1.4521128805815098
1.882062735424514,1.7178490886266689
1.884062802093403,1.5444306254867497
1.886062868762292,1.262053132841574
1.8880629354311809,1.4902954653162201
1.89006300210007,1.4254165425427245
1.8920630687689588,1.1360396464747902
1.8940631354378479,1.587181852865157
1.8960632021067367,1.5689025326974784
1.8980632687756258,1.8471705781056487
1.9000633354445147,1.4897182536812132
1.9020634021134037,1.6773861341330947
1.9040634687822926,1.717569420897469
1.9060635354511817,1.3483885587256543
1.9080636021200705,1.4732775075407267
1.9100636687889596,1.643058302998024
1.9120637354578485,1.1779063257888314
1.9140638021267375,1.1707226895251246
1.9160638687956264,1.5077416977196794
1.9180639354645155,1.3434568805452836
1.9200640021334043,1.6321666414058087
1.9220640688022934,1.5925224835777287
1.9240641354711823,1.5395806999128383
1.9260642021400713,1.3804659378845774
1.9280642688089602,1.2754870539066636
1.9300643354778493,1.2734699332949782
1.9320644021467381,1.2602785843913502
1.9340644688156272,1.4551448525100956
1.936064535484516,1.1772795867645458
1.938064602153405,1.3434573336916897
1.940064668822294,1.3895406770157148
1.9420647354911829,0.8784514091421366
1.944064802160072,1.2158610841536976
1.9460648688289608,1.5028389610345676
1.9480649354978499,0.9493189207912305
1.9500650021667387,1.1083108269286122
1.9520650688356278,1.558918419183419
1.9540651355045167,1.409390159673195
1.9560652021734057,1.3787146236623768
1.9580652688422946,1.2306315109690729
1.9600653355111837,1.5200685102866585
1.9620654021800725,1.0902525781814636
1.9640654688489616,0.9891442021233803
1.9660655355178505,1.2710318838164454
1.9680656021867395,1.1521980751835705
1.9700656688556284,1.428330996171331
1.9720657355245175,0.9133873157066728
1.9740658021934063,1.1958119211470655
1.9760658688622954,1.1228023565191791
1.9780659355311843,1.1649385499836238
1.9800660022000733,0.8669459872588599
1.9820660688689622,0.9695675081674426
1.9840661355378513,1.0443873378364428
1.9860662022067401,1.381115855525596
1.9880662688756292,1.516992250636932
1.990066335544518,1.0177153124373197
1.992066402213407,0.7110058882676429
1.994066468882296,0.8682980012027856
1.9960665355511849,1.2332911954555055
1.998066602220074,0.930128746712162
2.000066668888963,0.7850172207931803
2.0020667355578516,0.839378956665337
2.004066802226741,0.5743015889952415
2.00606686889563,0.7009421297131894
2.0080669355645187,0.6785650701939827
2.0100670022334075,0.7654344138777048
2.012067068902297,0.733462740703716
2.0140671355711857,0.7761524228593599
2.0160672022400745,0.858527495582784
2.0180672689089634,0.39098762559423156
2.0200673355778527,0.5043876217990226
2.0220674022467415,0.3751818087544999
2.0240674689156304,0.45526762157130907
2.0260675355845192,0.7043291350016014
2.0280676022534085,0.810841019994851
2.0300676689222974,0.329815673203914
2.0320677355911863,0.28482494652418
2.034067802260075,0.4025211993329053
2.0360678689289644,0.5421623370127677
2.0380679355978533,0.8099440875018732
2.040068002266742,0.5361494157740784
2.042068068935631,0.6757728513678951
2.0440681356045203,0.2674964449756883
2.046068202273409,0.40016551468878225
2.048068268942298,0.42832080818341367
2.050068335611187,0.37578005952909893
2.0520684022800757,0.37706189279273766
2.054068468948965,0.33055055101620145
2.056068535617854,0.37995033546229445
2.0580686022867427,0.12122894540370882
2.0600686689556316,-0.07667079429675161
2.062068735624521,0.28252143157486564
2.0640688022934097,-0.31446422595585144
2.0660688689622986,0.19728962601431196
2.0680689356311874,-0.09256477861993176
2.0700690023000767,-0.10392038869931125
2.0720690689689656,0.2650800639763192
2.0740691356378544,-0.14728705893379804
2.0760692023067433,-0.06470921031953333
2.0780692689756326,-0.060930650961134716
2.0800693356445215,-0.28480192921942793
2.0820694023134103,0.051100686063937216
2.084069468982299,-0.05731251290866715
2.0860695356511885,-0.3464950096896994
2.0880696023200773,0.42709673303441614
2.090069668988966,0.16256497063027103
2.092069735657855,-0.5847537743463741
2.0940698023267443,0.15087061061723328
2.096069868995633,-0.33199731986669834
2.098069935664522,-0.26362174554222134
2.100070002333411,0.015748847604117183
2.1020700690023,-0.32850119485864937
2.104070135671189,-0.4411607654050492
2.106070202340078,-0.3463798446861475
2.1080702690089668,-0.1998062063245752
2.1100703356778556,-0.47396510558331567
2.112070402346745,-0.30823951913748054
2.114070469015634,-0.370413323655664
2.1160705356845226,-0.15874460150768593
2.1180706023534115,-0.1855433419119925
2.120070669022301,-0.8304506729491021
2.1220707356911896,-0.7213941488344044
2.1240708023600785,-0.6161394512097734
2.1260708690289674,-0.7483665622578997
2.1280709356978567,-0.470943969841173
2.1300710023667455,-0.6520989185175243
2.1320710690356344,-0.3479846314227161
2.1340711357045232,-0.502816693140104
2.1360712023734125,-0.5251029381132134
2.1380712690423014,-0.5816837381242358
2.1400713357111902,-0.7572900085676202
2.142071402380079,-0.7756646954627078
2.1440714690489684,-0.7106808979062396
2.1460715357178572,-0.8503803202719713
2.148071602386746,-0.565373994594591
2.150071669055635,-0.6260891997057878
2.1520717357245243,-0.7455025300144749
2.154071802393413,-0.5883424891010003
2.156071869062302,-0.5957839143187128
2.158071935731191,-0.680566554745528
2.16007200240008,-0.9638696591755934
2.162072069068969,-0.6676891236095628
2.164072135737858,-0.7517583490582204
2.1660722024067467,-1.0164299148929188
2.1680722690756355,-0.8643994549431918
2.170072335744525,-1.1000443475086916
2.1720724024134137,-1.3136785168925202
2.1740724690823026,-0.8259162972722467
2.1760725357511914,-1.1328281847261679
2.1780726024200807,-1.1242498477344782
2.1800726690889696,-1.123738175454076
2.1820727357578584,-0.7611863935267094
2.1840728024267473,-1.6720089762787844
2.1860728690956366,-1.2126454854098603
2.1880729357645254,-1.2063142941214768
2.1900730024334143,-1.1160332155679504
2.192073069102303,-1.0589765951763408
2.1940731357711925,-1.3486106899938597
2.1960732024400813,-0.9815248349243767
2.19807326910897,-0.8581393999110306
2.200073335777859,-1.2781609810092467
2.2020734024467483,-1.1271938119446963
2.204073469115637,-1.260510342289307
2.206073535784526,-0.9184372028108663
2.208073602453415,-1.4229193686908714
2.210073669122304,-1.0632565190655865
2.212073735791193,-1.1083238586047537
2.214073802460082,-1.1103409157500639
2.2160738691289708,-1.2185560563299296
2.21807393579786,-1.0790997370417696
2.220074002466749,-1.0323236468157067
2.2220740691356378,-1.3382387065999157
2.2240741358045266,-1.4589586968457084
2.2260742024734155,-1.3292106819968428
2.2280742691423048,-1.355577817383026
2.2300743358111936,-1.0358674852396874
2.2320744024800825,-1.491612069842714
2.2340744691489713,-1.2727248649725555
2.2360745358178606,-1.3382373586899978
2.2380746024867495,-1.778318530651067
2.2400746691556384,-1.3703593403063055
2.242074735824527,-1.0854689015153252
2.2440748024934165,-1.433041491608184
2.2460748691623054,-1.2496612785228252
2.248074935831194,-1.2529156536586339
2.250075002500083,-1.297719710388864
2.2520750691689724,-1.4315523659572436
2.2540751358378612,-1.5874123529787387
2.25607520250675,-1.2523695656943223
2.258075269175639,-1.2967834949498103
2.2600753358445282,-1.3044184172987452
2.262075402513417,-1.2226420775663096
2.264075469182306,-1.3214249062285197
2.266075535851195,-1.6864549473638184
2.268075602520084,-1.5433477182016668
2.270075669188973,-1.5486757149412
2.272075735857862,-1.8063625915677857
2.2740758025267507,-1.88297697356348
2.2760758691956395,-1.2461804849701026
2.278075935864529,-1.6762241365156016
2.2800760025334177,-1.3018079058908885
2.2820760692023065,-1.4289889800492774
2.2840761358711954,-1.5439045844791779
2.2860762025400847,-1.5764527095161018
2.2880762692089736,-1.746066318282008
2.2900763358778624,-1.6020032851684793
2.2920764025467513,-1.6157113781202423
2.2940764692156406,-1.5770508660957792
2.2960765358845294,-1.590777818996777
2.2980766025534183,-1.3570834147861162
2.300076669222307,-1.7411712772630528
2.3020767358911964,-1.4624740323619043
2.3040768025600853,-1.4845778720659164
2.306076869228974,-1.6906146214676894
2.308076935897863,-1.6368136088356475
2.3100770025667523,-1.6424094455229221
2.312077069235641,-1.5974085264229105
2.31407713590453,-1.8105149548316213
2.316077202573419,-0.910105748100632
2.318077269242308,-1.6954382075069336
2.320077335911197,-1.5527453525735577
2.322077402580086,-1.3006557537138366
2.3240774692489747,-1.5580382299787034
2.326077535917864,-1.3863864818756926
2.328077602586753,-1.1340648178772015
2.3300776692556417,-1.5069777594773732
2.3320777359245306,-1.5489828372327743
2.3340778025934195,-1.4504081700155524
2.3360778692623088,-1.8811604615801352
2.3380779359311976,-1.5040944456100542
2.3400780026000865,-1.226423862041384
2.3420780692689753,-1.5733718421906504
2.3440781359378646,-1.3068952293537022
2.3460782026067535,-1.573938066182743
2.3480782692756423,-1.7230447936670654
2.350078335944531,-1.683295953511514
2.3520784026134205,-1.3344789341625798
2.3540784692823093,-1.5062236071862305
2.356078535951198,-1.3848959594660188
2.358078602620087,-1.1918488434241348
2.3600786692889764,-1.2715237562264052
2.362078735957865,-0.9196331691481404
2.364078802626754,-0.9415427361964581
2.366078869295643,-1.2981294494566908
2.3680789359645322,-0.8842576518391086
2.370079002633421,-1.4380480776219347
2.37207906930231,-1.4436380769142436
2.374079135971199,-1.0777618125641908
2.376079202640088,-1.2555551404626826
2.378079269308977,-1.2901465576042228
2.380079335977866,-1.0755355189342817
2.3820794026467547,-1.410605208328409
2.384079469315644,-1.6340376741599638
2.386079535984533,-1.096269473435725
2.3880796026534217,-0.8931741007624046
2.3900796693223105,-0.9798938854648221
2.3920797359911994,-1.4392185737445067
2.3940798026600887,-1.2038165232513998
2.3960798693289775,-0.9963980248175212
2.3980799359978664,-1.172479944887878
2.4000800026667553,-1.154934145473615
2.4020800693356446,-0.5910017315462041
2.4040801360045334,-1.1640426955382197
2.4060802026734223,-0.9868443693983293
2.408080269342311,-0.904380184739859
2.4100803360112004,-0.6628069850513494
2.4120804026800893,-0.8813729915378369
2.414080469348978,-0.3215298450967239
2.416080536017867,-0.7711741375725961
2.4180806026867563,-0.7668956276255295
2.420080669355645,-0.9281952756628714
2.422080736024534,-0.7691675976303258
2.424080802693423,-1.0675957944188177
2.426080869362312,-0.6937268145308574
2.428080936031201,-0.5973011000286932
2.43008100270009,-0.9563129817986866
2.4320810693689787,-1.1177557125149211
2.434081136037868,-0.6621063335413138
2.436081202706757,-0.4317034632012699
2.4380812693756457,-0.4241623183026852
2.4400813360445346,-0.788359445956103
2.442081402713424,-0.38001029977098255
2.4440814693823127,-1.2859025905025718
2.4460815360512016,-0.9094741816826795
2.4480816027200905,-0.38461238238622975
2.4500816693889793,-0.3443154487888589
2.4520817360578686,-0.7520709781207671
2.4540818027267575,-0.18273083759437003
2.4560818693956463,-0.4449139650242988
2.458081936064535,-0.8232178311098375
2.4600820027334245,-0.21527354390516523
2.4620820694023133,-0.2983138159288449
2.464082136071202,-0.40371394207970884
2.466082202740091,-0.2340713018291578
2.4680822694089803,-0.5116387258752428
2.470082336077869,-0.38690733373184366
2.472082402746758,-0.45094058286912186
2.474082469415647,-0.4308863993410802
2.476082536084536,-0.2275966288753853
2.478082602753425,-0.23154458808611972
2.480082669422314,-0.44325000469035436
2.482082736091203,-0.2311967402250941
2.484082802760092,-0.30449250892213714
2.486082869428981,-0.23904341243009478
2.48808293609787,-0.2352574579916336
2.4900830027667586,-0.056552841163495855
2.492083069435648,0.0032521247969640177
2.494083136104537,0.08886390481482688
2.4960832027734257,0.33841555842333726
2.4980832694423145,-0.050068537459142026
2.500083336111204,0.5111280441079724
2.5020834027800927,-0.41360073765065597
2.5040834694489815,0.18117306385235868
2.5060835361178704,0.2995962757535039
2.5080836027867592,0.21369848134021302
2.5100836694556485,0.360276597776954
2.5120837361245374,0.13637716779677617
2.5140838027934262,0.08980794489525021
2.516083869462315,0.03685441079219795
2.5180839361312044,0.006988678039947904
2.5200840028000933,0.3137134021282923
2.522084069468982,0.4595989487491766
2.524084136137871,-0.016865628355937523
2.5260842028067603,0.4796164344775682
2.528084269475649,0.6093605976569765
2.530084336144538,0.2526121776579146
2.532084402813427,0.3483487759793157
2.534084469482316,0.2552758519661237
2.536084536151205,0.7790873111820765
2.538084602820094,0.4150346416163917
2.5400846694889827,0.5055157066248815
2.542084736157872,0.41572139936421554
2.544084802826761,0.6077360530505402
2.5460848694956497,0.27565760709731746
2.5480849361645386,0.5838855651667771
2.550085002833428,0.45833489819189954
2.5520850695023167,0.7238093758068743
2.5540851361712056,0.7121735448164648
2.5560852028400944,0.42677535715957626
2.5580852695089837,0.25365827051336187
2.5600853361778726,0.7317339108647675
2.5620854028467615,0.4270499113508388
2.5640854695156503,0.755642591123469
2.566085536184539,0.5943966052811236
2.5680856028534285,0.9235999848177741
2.5700856695223173,0.5169126280593864
2.572085736191206,0.7470242234132669
2.574085802860095,1.0520150738257577
2.5760858695289843,0.46113382992561086
2.578085936197873,0.5160062584455674
2.580086002866762,0.8096018462733974
2.582086069535651,1.2086043243433242
2.58408613620454,1.2756201294777942
2.586086202873429,1.0450850860162366
2.588086269542318,1.067587561005054
2.5900863362112068,0.9560697028976126
2.592086402880096,0.5966731182262741
2.594086469548985,0.6599238187501884
2.5960865362178738,0.9964085628934882
2.5980866028867626,0.7121900786369109
2.600086669555652,1.222551737076898
2.602086736224541,1.0576584663827564
2.6040868028934296,1.556523015301466
2.6060868695623185,1.4947766438037235
2.608086936231208,0.5566757397954275
2.6100870029000967,1.0382568840006974
2.6120870695689855,1.0811694423830613
2.6140871362378744,1.2273390172439804
2.6160872029067637,1.129253843840556
2.6180872695756525,1.1157444492204311
2.6200873362445414,1.3020720294612969
2.6220874029134302,1.095474413961813
2.624087469582319,1.3322848383489128
2.6260875362512084,1.3806725411972804
2.6280876029200972,1.2762820572530633
2.630087669588986,1.3277200444098645
2.632087736257875,1.2481843689346874
2.6340878029267643,1.4337323988364903
2.636087869595653,1.5000530737981523
2.638087936264542,1.5180700964511962
2.640088002933431,1.1780600865434558
2.64208806960232,1.458427916565043
2.644088136271209,1.3175612104356336
2.646088202940098,1.1114003205343546
2.6480882696089867,1.3821246165206522
2.650088336277876,1.459576897579298
2.652088402946765,1.4248128353075347
2.6540884696156537,1.2307993322625137
2.6560885362845426,1.3221430241215408
2.658088602953432,1.5470761254183756
2.6600886696223207,1.1434449530299862
2.6620887362912096,1.3971845891762034
2.6640888029600984,1.509561828750303
2.6660888696289877,1.659128129506167
2.6680889362978766,1.604785218939193
2.6700890029667654,1.285800666765363
2.6720890696356543,1.5460400392997362
2.674089136304543,1.3525246940585114
2.6760892029734324,1.1019196591685647
2.6780892696423213,1.5872603240563214
2.68008933631121,1.2087634795695334
2.682089402980099,1.3744421706373222
2.6840894696489883,1.3974636176051956
2.686089536317877,1.629243805658633
2.688089602986766,1.7789170713067053
2.690089669655655,2.1012157062935577
2.692089736324544,1.575769508286217
2.694089802993433,1.4321566947175932
2.696089869662322,1.2515317062780102
2.6980899363312107,1.4581594416638906
2.7000900030001,1.1200278216245438
2.702090069668989,1.2740345275889176
2.7040901363378778,1.7127323099024774
2.7060902030067666,1.6092799347016036
2.708090269675656,2.023939443848899
2.7100903363445448,1.52855962273931
2.7120904030134336,1.8121118566964876
2.7140904696823225,1.756535366225713
2.716090536351212,1.3163789655628548
2.7180906030201006,1.867138551352112
2.7200906696889895,1.332927868282479
2.7220907363578783,1.1730179343795644
2.7240908030267676,1.7754193255617465
2.7260908696956565,1.295757180128565
2.7280909363645454,1.4085261658080592
2.730091003033434,1.3970580016728107
2.732091069702323,1.3198361215022993
2.7340911363712124,1.4049781860987194
2.7360912030401012,1.3247106818798702
2.73809126970899,1.3973738380325789
2.740091336377879,1.4626698195339358
2.7420914030467682,1.5170142892329204
2.744091469715657,1.5489633883648024
2.746091536384546,1.1255141161282967
2.748091603053435,1.4499036416297026
2.750091669722324,1.528179555746405
2.752091736391213,1.2879425431652718
2.754091803060102,1.509891142654665
2.7560918697289907,0.9836024838179719
2.75809193639788,1.6563538961332003
2.760092003066769,1.2643750592320964
2.7620920697356577,1.2935646387656632
2.7640921364045465,1.7755919184018214
2.766092203073436,1.7594426732180675
2.7680922697423247,1.6140697967946778
2.7700923364112136,1.1954478397665786
2.7720924030801024,1.553404288090966
2.7740924697489917,1.5721042515761008
2.7760925364178806,1.1033612743686858
2.7780926030867694,1.1425760748548337
2.7800926697556583,1.259176879483757
2.7820927364245476,1.1307751427046648
2.7840928030934364,1.4414642171124645
2.7860928697623253,1.331028033667982
2.788092936431214,1.1241294832226765
2.790093003100103,1.306486983887357
2.7920930697689923,1.107626529789814
2.794093136437881,1.1192733809731394
2.79609320310677,1.324754804589165
2.798093269775659,1.2473643702859964
2.800093336444548,1.030988357558825
2.802093403113437,0.9178825977037695
2.804093469782326,1.510584651968191
2.8060935364512147,1.5979535861119114
2.808093603120104,1.188590748911538
2.810093669788993,0.9132705268460448
2.8120937364578817,0.8591324631352808
2.8140938031267706,1.2978424493934009
2.81609386979566,1.1698658878673014
2.8180939364645488,0.903932955710345
2.8200940031334376,1.0407459733041868
2.8220940698023265,1.1499528124595748
2.8240941364712158,0.9211744168892079
2.8260942031401046,0.9007649764351379
2.8280942698089935,1.0418812011205918
2.8300943364778823,0.6193726331851718
2.8320944031467716,0.967508370462622
2.8340944698156605,0.8835330971788877
2.8360945364845493,0.7811303747751226
2.838094603153438,1.01292325621774
2.8400946698223275,0.8060738436750454
2.8420947364912164,0.7601717290239586
2.844094803160105,1.0983823815088367
2.846094869828994,0.7330286460558312
2.848094936497883,1.0807008968412564
2.8500950031667722,1.0356498097096307
2.852095069835661,0.45908596741432417
2.85409513650455,0.5571416640418563
2.856095203173439,0.6542256936025628
2.858095269842328,0.5368715566376963
2.860095336511217,0.49571130785025413
2.862095403180106,0.7890564800636625
2.8640954698489947,0.7736503791750553
2.866095536517884,0.19584052324013934
2.868095603186773,0.5084991273598221
2.8700956698556617,0.4038109716451468
2.8720957365245505,0.30478261723314165
2.87409580319344,0.6599804111578551
2.8760958698623287,0.5489752923261686
2.8780959365312175,0.4367881838004141
2.8800960032001064,0.19201889060453356
2.8820960698689957,0.15381212187547658
2.8840961365378845,0.3174372582872954
2.8860962032067734,0.3546849607447652
2.8880962698756623,0.16982617565965824
2.8900963365445516,0.19959172582362
2.8920964032134404,-0.074823047077339
2.8940964698823293,-0.03224193632874567
2.896096536551218,0.1932049995080637
2.8980966032201074,0.10787080484911145
2.9000966698889963,0.34003035502717277
2.902096736557885,-0.0023381361028629033
2.904096803226774,0.29898528442142547
2.906096869895663,0.1927178221797279
2.908096936564552,0.5996334842247923
2.910097003233441,0.275025840457596
2.91209706990233,-0.08228416999363346
2.9140971365712187,-0.08022350743651101
2.916097203240108,0.002485263022032183
2.918097269908997,-0.027404540261450068
2.9200973365778857,-0.17137415319974864
2.9220974032467746,0.18518723082835514
2.924097469915664,0.1738701318021537
2.9260975365845527,0.2564057475813858
2.9280976032534416,0.2517541987655817
2.9300976699223305,-0.3679521726672196
2.9320977365912197,-0.10628586170522665
2.9340978032601086,-0.28755907511545026
2.9360978699289975,0.009495767351905854
2.9380979365978863,-0.02402750514141694
2.9400980032667756,-0.5602779811408827
2.9420980699356645,-0.15013569641106422
2.9440981366045533,-0.4042752809540862
2.946098203273442,0.11261560563723355
2.9480982699423315,-0.34831137324907485
2.9500983366112203,-0.4044208096208773
2.952098403280109,0.0028286249547044284
2.954098469948998,-0.1909661058647719
2.9560985366178874,-0.5542176460523186
2.958098603286776,-0.6049642323381998
2.960098669955665,-0.6370478146531156
2.962098736624554,-0.9556875412858769
2.9640988032934428,-0.6411216502784888
2.966098869962332,-0.2238677073078103
2.968098936631221,-0.3703499983414205
2.97009900330011,-0.43250316003470485
2.9720990699689986,-0.5752982089248649
2.974099136637888,-1.0054187341456973
2.976099203306777,-0.8094674340061598
2.9780992699756657,-0.9266864315961272
2.9800993366445545,-0.7096022783807489
2.982099403313444,-0.4718980085038954
2.9840994699823327,-0.5492667942887992
2.9860995366512215,-0.770551590378696
2.9880996033201104,-1.0707912339318062
2.9900996699889997,-0.5603178481678412
2.9920997366578885,-1.1949029119595442
2.9940998033267774,-0.5132631202205542
2.9960998699956662,-0.9152888613583917
2.9980999366645555,-1.2661509189585023
3.0001000033334444,-0.9789835106732219
3.0021000700023333,-0.9355951507128071
3.004100136671222,-0.8677069733032651
3.0061002033401114,-0.9827811865566239
3.0081002700090003,-0.6927214321197437
3.010100336677889,-0.9223570978886557
3.012100403346778,-0.706993969080411
3.0141004700156673,-0.9999664539090471
3.016100536684556,-0.9850774686682288
3.018100603353445,-0.9388019756346606
3.020100670022334,-0.9448178621911938
3.0221007366912227,-1.2387903530458777
3.024100803360112,-1.3393085152573552
3.026100870029001,-1.1356863324205517
3.0281009366978897,-1.0886508320576873
3.0301010033667786,-1.1317914420445705
3.032101070035668,-1.2039092385350922
3.0341011367045567,-1.1350227794259526
3.0361012033734456,-1.1637358780388
3.0381012700423344,-0.9801799035781299
3.0401013367112237,-1.2694279517540321
3.0421014033801126,-1.3673950064138882
3.0441014700490014,-1.4764386712089836
3.0461015367178903,-1.3824511914038022
3.0481016033867796,-1.1378147754262922
3.0501016700556685,-1.2322705035191361
3.0521017367245573,-1.0276349598585788
3.054101803393446,-0.840424483255702
3.0561018700623355,-1.4392724452823922
3.0581019367312243,-1.1723182282065288
3.060102003400113,-1.384828579465717
3.062102070069002,-1.0386533870173638
3.0641021367378913,-1.5752765561653446
3.06610220340678,-1.0430523111532293
3.068102270075669,-1.0199941754098822
3.070102336744558,-1.2990527456270269
3.0721024034134468,-1.3566283126864682
3.074102470082336,-1.4000697627969974
3.076102536751225,-1.2975251202967777
3.0781026034201138,-1.4663189077153367
3.0801026700890026,-1.5594275667751034
3.082102736757892,-1.3990314645753537
3.084102803426781,-1.2557255646169458
3.0861028700956696,-1.4244868186994495
3.0881029367645585,-1.5636428006279683
3.090103003433448,-1.1897245661143663
3.0921030701023366,-1.4521322723090617
3.0941031367712255,-1.2155164447726599
3.0961032034401144,-1.615485634779831
3.0981032701090037,-1.280679770550835
3.1001033367778925,-1.37230947219347
3.1021034034467814,-1.6962315993589516
3.1041034701156702,-1.5965850919016469
3.1061035367845595,-1.5721585852751405
3.1081036034534484,-1.331154795929033
3.1101036701223372,-1.7030969748282951
3.112103736791226,-1.5888064027615265
3.1141038034601154,-1.7988617536340752
3.1161038701290042,-1.4330446978874856
3.118103936797893,-1.7044190191461284
3.120104003466782,-1.7872404633449355
3.1221040701356713,-1.5801885957188753
3.12410413680456,-1.713559621140123
3.126104203473449,-1.3310812560908112
3.128104270142338,-1.6529037686242776
3.1301043368112267,-1.5841716163874
3.132104403480116,-1.8018913747202108
3.134104470149005,-1.7143182993748252
3.1361045368178937,-1.522546585078034
3.1381046034867826,-1.842201758972109
3.140104670155672,-1.352200119234304
3.1421047368245607,-1.5291723895969458
3.1441048034934496,-1.5358618867413905
3.1461048701623384,-1.310104226581568
3.1481049368312277,-1.3526935347632885
3.1501050035001166,-1.301313744702171
3.1521050701690054,-1.4144499134580273
3.1541051368378943,-1.3554773118734
3.1561052035067836,-1.2522849568989736
3.1581052701756724,-1.5124298405053123
3.1601053368445613,-1.7717926345504758
3.16210540351345,-1.8316468060282967
3.1641054701823395,-1.1885150537716365
3.1661055368512283,-1.4098496376638394
3.168105603520117,-1.4527218662459995
3.170105670189006,-1.6880402929121587
3.1721057368578953,-1.2468597934241286
3.174105803526784,-1.5449126045881085
3.176105870195673,-1.2526998065905544
3.178105936864562,-1.2048596249954169
3.180106003533451,-1.1541130678904037
3.18210607020234,-1.1544691025485725
3.184106136871229,-1.2834723128035401
3.1861062035401178,-1.4609413470696653
3.1881062702090066,-1.5769053476202732
3.190106336877896,-1.1905619287082425
3.1921064035467848,-1.4029585227458323
3.1941064702156736,-1.2655620372583656
3.1961065368845625,-1.3362645178816077
3.1981066035534518,-1.3161112696810955
3.2001066702223406,-1.1461202454400505
3.2021067368912295,-1.041458129553609
3.2041068035601183,-1.2727220635659535
3.2061068702290076,-1.4448986433771434
3.2081069368978965,-1.088759894028307
3.2101070035667854,-0.9736286315254997
3.212107070235674,-1.1339970213423034
3.2141071369045635,-1.0070630383094268
3.2161072035734524,-1.4881028631865623
3.2181072702423412,-1.0067180014344013
3.22010733691123,-1.3634243133607624
3.2221074035801194,-0.9909456430544327
3.2241074702490082,-0.8253037413060345
3.226107536917897,-0.7184797387865879
3.228107603586786,-0.9711904536472415
3.2301076702556752,-1.2336363391582417
3.232107736924564,-1.196211364694467
3.234107803593453,-1.4683017725574106
3.236107870262342,-1.107750800533647
3.238107936931231,-1.1029421027964532
3.24010800360012,-1.2370757177047078
3.242108070269009,-0.9831699602928742
3.2441081369378977,-1.3417628974668188
3.2461082036067865,-0.8229671946166635
3.248108270275676,-0.8943951491134484
3.2501083369445647,-0.9627047038162403
3.2521084036134535,-0.8237182870162026
3.2541084702823424,-1.2175244909028384
3.2561085369512317,-0.6743437293016443
3.2581086036201206,-1.0662500954514322
3.2601086702890094,-0.8389245896724287
3.2621087369578983,-0.9728965864158052
3.2641088036267876,-0.7863395576974352
3.2661088702956764,-0.8738426563289775
3.2681089369645653,-0.6562947262131473
3.270109003633454,-0.3940742421198815
3.2721090703023434,-0.6368309612586511
3.2741091369712323,-0.39313235477348807
3.276109203640121,-0.3945648177884572
3.27810927030901,-0.6250367025845409
3.2801093369778993,-0.7902555127790641
3.282109403646788,-0.5056268238697429
3.284109470315677,-0.6759323405674645
3.286109536984566,-0.2143803314844916
3.288109603653455,-0.36740069120935626
3.290109670322344,-0.42297908446325677
3.292109736991233,-0.988637474013029
3.2941098036601217,-0.5844010807897336
3.296109870329011,-0.7276871377724239
3.2981099369979,-0.4264009813644721
3.3001100036667887,-0.3166477197761212
3.3021100703356776,-0.36411458802647906
3.3041101370045665,-0.05050841441246007
3.3061102036734558,-0.5021974683324247
3.3081102703423446,-0.2935598149543783
3.3101103370112335,-0.5838534968971538
3.3121104036801223,-0.7254319194019199
3.3141104703490116,-0.4355868901601435
3.3161105370179005,-0.32174969998235825
3.3181106036867893,-0.41592465789489996
3.320110670355678,-0.22857144754569936
3.3221107370245675,0.3090750039887974
3.3241108036934564,-0.3018562706461164
3.326110870362345,-0.032137139100822665
3.328110937031234,-0.20282238146372983
3.3301110037001234,-0.10589095574422999
3.332111070369012,-0.002620971213161386
3.334111137037901,-0.18683554446353068
3.33611120370679,-0.12028478292043925
3.3381112703756792,0.07688661661303997
3.340111337044568,0.18450283060685527
3.342111403713457,0.2953912181479263
3.344111470382346,-0.06721718662092116
3.346111537051235,0.3310307168060215
3.348111603720124,0.07902529859671348
3.350111670389013,0.08218770360781771
3.3521117370579017,-0.13755595882667765
3.354111803726791,0.6690203053608013
3.35611187039568,0.4886275204463897
3.3581119370645687,0.11468021869835057
3.3601120037334575,0.5110163513464236
3.3621120704023464,0.1490970272649356
3.3641121370712357,0.2928094202722456
3.3661122037401245,0.3118262190310111
3.3681122704090134,0.032410531793878705
3.3701123370779023,0.31445577322814494
3.3721124037467916,0.3849908506091525
3.3741124704156804,0.43777197042498495
3.3761125370845693,0.3096780029433652
3.378112603753458,0.4498072712312787
3.3801126704223474,0.7057268755078946
3.3821127370912363,0.5334925122858977
3.384112803760125,0.5626467371730584
3.386112870429014,0.49340657194035853
3.3881129370979033,0.48189729405439047
3.390113003766792,0.40950453991583613
3.392113070435681,0.5666764723428755
3.39411313710457,0.2832314745985721
3.396113203773459,0.5805623839877768
3.398113270442348,0.5196558166685921
3.400113337111237,0.7818663502548859
3.4021134037801257,0.8061909260446757
3.404113470449015,0.6788452443963556
3.406113537117904,0.7217782644551323
3.4081136037867927,0.7559285239272797
3.4101136704556816,0.8770648288543986
3.412113737124571,0.8502564389570433
3.4141138037934597,0.5330542219596734
3.4161138704623486,0.9709769046128847
3.4181139371312375,1.29896579033284
3.4201140038001263,1.0350879494004623
3.4221140704690156,1.0612783237625036
3.4241141371379045,0.843014601514836
3.4261142038067933,1.288016834925681
3.428114270475682,1.3433219036104918
3.4301143371445715,0.7667925826787312
3.4321144038134603,1.1267514979394337
3.434114470482349,0.9921215142125606
3.436114537151238,1.1023812445120416
3.4381146038201273,0.8373215102132452
3.440114670489016,1.1314789154641816
3.442114737157905,0.6267887995443309
3.444114803826794,1.1548193590526523
3.446114870495683,1.1437925138717724
3.448114937164572,1.2274205534332934
3.450115003833461,1.3893498407765674
3.45211507050235,0.9776991439298162
3.454115137171239,0.9241226982703474
3.456115203840128,1.2116161147681397
3.458115270509017,1.0909838467899318
3.4601153371779056,1.4730123734791356
3.462115403846795,1.00228696940818
3.464115470515684,1.1460346538663124
3.4661155371845727,0.9941618137706139
3.4681156038534615,1.2941169463899886
3.470115670522351,1.2469477384259544
3.4721157371912397,1.353779143147549
3.4741158038601285,1.5576133182543792
3.4761158705290174,1.4823887197497052
3.4781159371979062,1.609506494348959
3.4801160038667955,1.399542725313835
3.4821160705356844,1.4308665863231584
3.4841161372045732,1.3244652198508793
3.486116203873462,1.2547453500868098
3.4881162705423514,1.6337417441504856
3.4901163372112403,1.3849292823908217
3.492116403880129,1.3650141808317446
3.494116470549018,1.4722047070611177
3.4961165372179073,1.7389381981656626
3.498116603886796,1.4875323852047184
3.500116670555685,1.3861289599139135
3.502116737224574,1.3179077209934074
3.504116803893463,1.8695921794288672
3.506116870562352,1.5805694155449348
3.508116937231241,1.822092237785709
3.5101170039001297,1.7180479587631123
3.512117070569019,1.597848178101685
3.514117137237908,1.6970907500234156
3.5161172039067967,1.3092777835878944
3.5181172705756856,1.4744791701543891
3.520117337244575,1.0337180902335417
3.5221174039134637,1.5906772627002355
3.5241174705823526,1.561639587370391
3.5261175372512414,1.6142927727779592
3.5281176039201303,1.2772519974536827
3.5301176705890196,1.7271866833287586
3.5321177372579085,1.716492869541344
3.5341178039267973,1.5772866960272505
3.536117870595686,1.7000697300684544
3.5381179372645755,1.645053135910152
3.5401180039334643,1.5991392020725892
3.542118070602353,1.422465484807058
3.544118137271242,1.383291458507203
3.5461182039401313,1.2912923519847466
3.54811827060902,1.1612324031474903
3.550118337277909,1.6076556522799466
3.552118403946798,1.2302256207235505
3.554118470615687,1.6926055726580815
3.556118537284576,1.7780886007523367
3.558118603953465,1.3484860769182956
3.5601186706223538,1.5024834277861143
3.562118737291243,1.7656657944192482
3.564118803960132,1.742069631460567
3.5661188706290208,1.1580709182930842
3.5681189372979096,1.336577353895535
3.570119003966799,1.2887574903587824
3.572119070635688,1.1491531593409836
3.5741191373045766,1.2752504566975675
3.5761192039734655,1.6685575388882334
3.578119270642355,1.091761459354788
3.5801193373112437,1.357107351977246
3.5821194039801325,1.5612466215353882
3.5841194706490214,1.5121026733848852
3.58611953731791,1.3485492762998923
3.5881196039867995,1.3855696069922168
3.5901196706556884,1.5928937396667113
3.5921197373245772,1.3389575947361037
3.594119803993466,1.1829518101466654
3.5961198706623554,1.2291928101406888
3.5981199373312442,1.2710927829986305
3.600120004000133,1.2380893503612898
3.602120070669022,1.4316299234434915
3.6041201373379113,1.4055024865216377
3.6061202040068,1.3406058765866227
3.608120270675689,1.2434145495741369
3.610120337344578,1.3458392262030332
3.612120404013467,1.3699833298590018
3.614120470682356,1.4929317798597297
3.616120537351245,1.1633833021931026
3.6181206040201337,1.1430578675950063
3.620120670689023,1.288384092357936
3.622120737357912,1.069247649797176
3.6241208040268007,1.4961040564953698
3.6261208706956896,1.307193309618795
3.628120937364579,1.1042882393363667
3.6301210040334677,1.1593256974226718
3.6321210707023566,1.2773425920910386
3.6341211373712454,1.215122433746125
3.6361212040401347,1.2987405638409073
3.6381212707090236,1.4212158687713352
3.6401213373779124,0.7021001661234514
3.6421214040468013,1.1407981636481659
3.64412147071569,1.152331978457432
3.6461215373845794,1.250374569880781
3.6481216040534683,1.2780347695996996
3.650121670722357,1.1822712473133803
3.652121737391246,0.9329188939418228
3.6541218040601353,1.3250053778784832
3.656121870729024,0.8462526401848449
3.658121937397913,0.9649333786752246
3.660122004066802,1.127685637107743
3.662122070735691,0.6113140349003318
3.66412213740458,0.729002670959431
3.666122204073469,0.7500823867592168
3.6681222707423577,0.941273632893985
3.670122337411247,0.8610839354558175
3.672122404080136,0.44559901768595184
3.6741224707490248,0.7829080467666057
3.6761225374179136,0.7111144077487277
3.678122604086803,1.2456286478368805
3.6801226707556918,0.6606917253851642
3.6821227374245806,0.5565308002653271
3.6841228040934695,0.9226193871025337
3.686122870762359,0.7010544417672412
3.6881229374312476,0.37637063532375004
3.6901230041001365,0.7770927483087702
3.6921230707690254,0.7984586022084661
3.6941231374379147,0.5111972170721003
3.6961232041068035,0.5687628695901858
3.6981232707756924,0.6942467476166221
3.700123337444581,0.7133425858443384
3.70212340411347,0.5159001225411843
3.7041234707823594,0.4163675373732452
3.7061235374512482,0.35075384941272714
3.708123604120137,0.5113706315459349
3.710123670789026,0.503262782359945
3.7121237374579152,0.54332529615706
3.714123804126804,0.44877030588416544
3.716123870795693,0.4852266621314439
3.718123937464582,0.864183440839184
3.720124004133471,0.2576389536280355
3.72212407080236,0.330510963787933
3.724124137471249,0.1436703924249923
3.7261242041401377,0.3695624710271973
3.728124270809027,0.5884130845691309
3.730124337477916,0.12129386543716988
3.7321244041468047,0.14077403155486595
3.7341244708156935,0.1062640242164598
3.736124537484583,0.061586519520586136
3.7381246041534717,0.2505677325128125
3.7401246708223606,0.26637901909082295
3.7421247374912494,-0.10531121535180993
3.7441248041601387,0.17818959933243483
3.7461248708290276,0.34006095734223585
3.7481249374979164,0.15697306088959345
3.7501250041668053,0.01643745044957215
3.7521250708356946,-0.1878613206462608
3.7541251375045834,-0.1108640274886048
3.7561252041734723,-0.004861373373121522
3.758125270842361,-0.032810697489283266
3.76012533751125,0.05504997789336662
3.7621254041801393,-0.09086598538266646
3.764125470849028,-0.48245529230618744
3.766125537517917,-0.2388805665568472
3.768125604186806,-0.24307808583331494
3.770125670855695,0.0954667030294169
3.772125737524584,-0.1649929125264653
3.774125804193473,-0.30938099378488026
3.7761258708623617,-0.11368547759361008
3.778125937531251,-0.5155998840477202
3.78012600420014,-0.3417978450640434
3.7821260708690287,-0.43049344777675735
3.7841261375379176,-0.569188777381604
3.786126204206807,-0.39731303036292426
3.7881262708756958,-0.7863262145220348
3.7901263375445846,-0.5653901432525738
3.7921264042134735,-0.4747270991038532
3.7941264708823628,-0.00919246767012094
3.7961265375512516,-0.3566442208300812
3.7981266042201405,-0.38546524586293934
3.8001266708890293,-0.8153450606863588
3.8021267375579186,-0.49997790102568856
3.8041268042268075,-0.5858109568220151
3.8061268708956963,-0.8334136225748905
3.808126937564585,-0.6515816218554112
3.8101270042334745,-0.4496866049822237
3.8121270709023634,-1.0212630358620656
3.814127137571252,-0.6395205545140559
3.816127204240141,-0.6545144499170438
3.81812727090903,-0.5316671344996122
3.8201273375779192,-0.8265552985721134
3.822127404246808,-0.617149377627241
3.824127470915697,-0.8019080524309853
3.826127537584586,-0.6532265794329388
3.828127604253475,-0.6261016190139528
3.830127670922364,-0.9434960146783009
3.832127737591253,-0.9232221689853701
3.8341278042601417,-0.9672076271485264
3.836127870929031,-1.1316253339789881
3.83812793759792,-1.0389702102472624
3.8401280042668087,-0.9780552795861699
3.8421280709356975,-0.9089626780149507
3.844128137604587,-0.809524614027006
3.8461282042734757,-1.0451802579230312
3.8481282709423645,-0.7291204634768498
3.8501283376112534,-1.199853625287907
3.8521284042801427,-1.1602372447508966
3.8541284709490315,-0.6670829567085854
3.8561285376179204,-1.0506588342506427
3.8581286042868093,-1.0157607165069724
3.8601286709556986,-1.1270334507758275
3.8621287376245874,-1.0343099741901949
3.8641288042934763,-1.0348466049199616
3.866128870962365,-1.1770220208271247
3.8681289376312544,-1.406671081682384
3.8701290043001433,-1.205853128834484
3.872129070969032,-1.3222437193655343
3.874129137637921,-1.3528564723644219
3.87612920430681,-1.3719626889191567
3.878129270975699,-0.8642821199538968
3.880129337644588,-1.420388654928517
3.882129404313477,-1.211393457614635
3.8841294709823657,-1.1273314485702823
3.886129537651255,-1.2740742985279943
3.888129604320144,-1.2743148341764579
3.8901296709890327,-1.2575169602425322
3.8921297376579216,-1.7447940013072991
3.894129804326811,-1.1443102998644865
3.8961298709956997,-1.4712237477019978
3.8981299376645886,-1.2750152835193536
3.9001300043334775,-1.170316528147746
3.9021300710023668,-1.5873016519792411
3.9041301376712556,-1.326215536901968
3.9061302043401445,-1.4253048562799646
3.9081302710090333,-1.4542496193047403
3.9101303376779226,-1.2321202534939213
3.9121304043468115,-1.2960895538501733
3.9141304710157003,-1.3167677932929482
3.916130537684589,-1.7231128513010128
3.9181306043534785,-1.5851440075869057
3.9201306710223673,-1.713875163959427
3.922130737691256,-1.439119404182268
3.924130804360145,-1.3757564821582233
3.926130871029034,-1.3957803955815224
3.928130937697923,-1.4228789463521692
3.930131004366812,-1.4308568727049975
3.932131071035701,-1.4115969958160004
3.9341311377045898,-1.4938942760148146
3.936131204373479,-1.1861717674491288
3.938131271042368,-1.5792544186267887
3.940131337711257,-1.4153447670660604
3.9421314043801456,-1.5925186610471211
3.944131471049035,-1.5612945442673574
3.946131537717924,-1.5361528988874522
3.9481316043868127,-1.6811157863743527
3.9501316710557015,-1.5301904052504198
3.952131737724591,-1.3941828018724272
3.9541318043934797,-1.1385892021082895
3.9561318710623685,-1.761567628694909
3.9581319377312574,-1.3604733724020397
3.9601320044001467,-1.1695198102359718
3.9621320710690355,-1.6544768434925068
3.9641321377379244,-1.730170302436963
3.9661322044068132,-1.5027457372739401
3.9681322710757025,-1.4389991512007825
3.9701323377445914,-1.2012546194023535
3.9721324044134803,-1.0623121878765094
3.974132471082369,-1.8038011052309109
3.9761325377512584,-1.8345877378007813
3.9781326044201473,-1.5234403222510338
3.980132671089036,-1.3282992197529329
3.982132737757925,-1.4762017369270186
3.984132804426814,-1.2782644654377333
3.986132871095703,-1.5893520904657494
3.988132937764592,-1.716920680117009
3.990133004433481,-1.3156501532645213
3.9921330711023697,-1.433240723037065
3.994133137771259,-1.2248081454373725
3.996133204440148,-1.2787852967664914
3.9981332711090367,-1.2124378123383845
4.000133337777926,-1.4455577035300389
4.002133404446814,-1.7181572262724623
4.004133471115703,-1.359334553903129
4.006133537784593,-1.2869897050869263
4.008133604453482,-2.048027694554375
4.010133671122371,-1.3780611118955215
4.01213373779126,-1.397285551421172
4.0141338044601484,-1.5472338333368767
4.016133871129037,-1.4832466893544742
4.018133937797926,-0.7658391820765632
4.020134004466815,-1.4610047518768423
4.022134071135705,-1.6187613555347444
4.024134137804594,-1.2739478229660564
4.0261342044734825,-1.1893872331406201
4.028134271142371,-1.4118153902881514
4.03013433781126,-1.1796572033017858
4.032134404480149,-1.2235674313204679
4.034134471149038,-1.0886874230404804
4.036134537817927,-0.9315329512930375
4.0381346044868165,-1.0416763759607086
4.040134671155705,-1.164242679290524
4.042134737824594,-1.3612200663214806
4.044134804493483,-1.4906762225833248
4.046134871162372,-0.9811012562040079
4.048134937831261,-1.3065065488420053
4.05013500450015,-1.4023609725300665
4.0521350711690385,-1.2535235153235649
4.054135137837927,-0.7822864766610671
4.056135204506817,-0.8988365251929697
4.058135271175706,-1.0412776221999613
4.060135337844595,-1.1031044583758733
4.062135404513484,-1.0962024748261254
4.0641354711823725,-1.098534853160786
4.066135537851261,-1.032724968268597
4.06813560452015,-1.2238395014901065
4.070135671189039,-0.9071216379308878
4.072135737857929,-0.9199132468333606
4.074135804526818,-1.3996400201873995
4.0761358711957065,-1.2241409473188463
4.078135937864595,-0.8712011840886467
4.080136004533484,-0.8722458368561716
4.082136071202373,-0.9761819439794461
4.084136137871262,-0.9946913635952992
4.086136204540151,-0.6817739029716409
4.0881362712090406,-0.8254256648751329
4.090136337877929,-1.195517375671963
4.092136404546818,-0.9125210802529119
4.094136471215707,-0.7118522538405075
4.096136537884596,-0.7677614848671683
4.098136604553485,-0.790309878674276
4.100136671222374,-0.9072250180548191
4.1021367378912625,-0.47906891554133
4.104136804560151,-0.5509077850389995
4.106136871229041,-1.2011958777860643
4.10813693789793,-0.5330528943245539
4.110137004566819,-0.8594580973079201
4.112137071235708,-0.3511306086734185
4.114137137904597,-0.926939083799565
4.116137204573485,-0.5010769339361721
4.118137271242374,-0.35185243037721203
4.120137337911263,-0.35494145452098297
4.122137404580153,-0.6926348886003733
4.124137471249042,-0.4209137565354186
4.126137537917931,-0.5588933420279689
4.128137604586819,-0.20374763959391307
4.130137671255708,-0.50279183089518
4.132137737924597,-0.3425750650518214
4.134137804593486,-0.7692514823540173
4.136137871262375,-0.4608059393618255
4.138137937931265,-0.37382153330230067
4.1401380046001535,-0.3838583312153634
4.142138071269042,-0.25036936005410726
4.144138137937931,-0.2386938556854881
4.14613820460682,-0.29167438431917964
4.148138271275709,-0.12523137702778026
4.150138337944598,-0.11360306207915026
4.152138404613487,-0.0923605975174328
4.1541384712823755,-0.5233688311365675
4.156138537951265,-0.04882230249424581
4.158138604620154,-0.32693841030010595
4.160138671289043,-0.01861537057364316
4.162138737957932,0.07194655158470988
4.164138804626821,0.3132690275832967
4.1661388712957095,-0.022554738205291303
4.168138937964598,-0.31673346591351415
4.170139004633487,-0.13100141790512093
4.172139071302377,-0.025051336273826177
4.174139137971266,0.0981857666384812
4.176139204640155,-0.0613098467052611
4.1781392713090435,-0.028417148698959976
4.180139337977932,0.5824505375364694
4.182139404646821,0.18621059707119714
4.18413947131571,0.3240949727965463
4.186139537984599,-0.04937681035132008
4.188139604653489,0.30249464725728753
4.1901396713223775,-0.17514307449522232
4.192139737991266,-0.06818280330285365
4.194139804660155,0.6767362767644624
4.196139871329044,0.40047890878985487
4.198139937997933,-0.15350507813832232
4.200140004666822,0.2542646320585809
4.202140071335711,0.3408354655290536
4.2041401380046,0.13114782922915202
4.206140204673489,0.19953092004104034
4.208140271342378,0.465913697392446
4.210140338011267,0.49962712113437363
4.212140404680156,0.4285887615444512
4.214140471349045,0.1415702261695011
4.2161405380179335,0.5246196201708023
4.218140604686822,0.25339922195654124
4.220140671355711,0.3812734520294183
4.222140738024601,0.6281073921869154
4.22414080469349,0.9339782133546932
4.226140871362379,0.7680439373196604
4.228140938031268,0.7607217803822324
4.230141004700156,0.3427041944717792
4.232141071369045,0.6900336994403488
4.234141138037934,0.5636713546887644
4.236141204706823,0.7538218123579816
4.238141271375713,1.0101406332904144
4.240141338044602,0.8712048358297233
4.24214140471349,1.0121458800061713
4.244141471382379,0.6689280940026014
4.246141538051268,1.4044921523745009
4.248141604720157,0.6755922025994746
4.250141671389046,0.6447558965244975
4.252141738057935,1.0161969542047564
4.2541418047268245,1.0617721921535674
4.256141871395713,1.058477715470958
4.258141938064602,1.0660513551814532
4.260142004733491,0.9650136432059773
4.26214207140238,1.0539140613765885
4.264142138071269,0.7615990783286382
4.266142204740158,0.8136100198011532
4.2681422714090465,1.0632358390268006
4.270142338077935,0.9024757412055572
4.272142404746825,1.1330272581803797
4.274142471415714,0.9690762876442163
4.276142538084603,0.8577936978757074
4.278142604753492,0.944365999787906
4.2801426714223805,1.0475006899162007
4.282142738091269,1.0849717389126303
4.284142804760158,0.8653227710008815
4.286142871429047,1.016756798476125
4.288142938097937,1.294849188275004
4.290143004766826,1.3068913912895261
4.2921430714357145,1.2829225417452128
4.294143138104603,1.5713925128952542
4.296143204773492,0.9209366174224862
4.298143271442381,1.0353338438261517
4.30014333811127,1.1979745379977984
4.302143404780159,0.8414923793020975
4.3041434714490485,1.0637001909798245
4.306143538117937,1.3534070423347306
4.308143604786826,1.2356977362831154
4.310143671455715,1.2937635794182862
4.312143738124604,1.2131321119002527
4.314143804793493,1.1439468303655014
4.316143871462382,1.5031733289482179
4.3181439381312705,1.231466895712796
4.32014400480016,1.4613002917734497
4.322144071469049,1.5016797440367302
4.324144138137938,1.3704978852988348
4.326144204806827,1.4674988584539401
4.328144271475716,1.2328591803764672
4.3301443381446045,1.3717252893166603
4.332144404813493,1.3832677549534356
4.334144471482382,1.7459855868750005
4.336144538151271,1.3590194412472865
4.338144604820161,1.5916540207833103
4.34014467148905,1.364690348975669
4.3421447381579386,1.314238198345529
4.344144804826827,1.5043021955477673
4.346144871495716,1.5346246161819752
4.348144938164605,1.8951924144866412
4.350145004833494,1.4439712674669878
4.352145071502383,0.9398652399917815
4.354145138171273,1.7684576756092476
4.356145204840161,1.3781518299244604
4.35814527150905,1.3707964590421544
4.360145338177939,1.6636263570989334
4.362145404846828,1.7316204903490033
4.364145471515717,1.6006981808739527
4.366145538184606,1.6701032248572263
4.368145604853495,1.500679875826525
4.370145671522384,1.4475941380972603
4.372145738191273,1.561500184465898
4.374145804860162,1.6914287497330087
4.376145871529051,1.331616377641991
4.37814593819794,1.2145962037265663
4.380146004866829,1.6195725892776462
4.3821460715357174,1.4474622127560144
4.384146138204606,1.7819617703816792
4.386146204873495,1.4503990704980512
4.388146271542385,1.3935076890276215
4.390146338211274,1.6087954762712373
4.392146404880163,1.6151513356167841
4.3941464715490515,1.2649042136132558
4.39614653821794,1.1705358792094693
4.398146604886829,1.176529760504475
4.400146671555718,1.209746004237255
4.402146738224607,1.391022755058969
4.404146804893497,1.5145949013439433
4.4061468715623855,1.4996896592004634
4.408146938231274,1.313074310550604
4.410147004900163,1.5363541099741163
4.412147071569052,1.6578750201714592
4.414147138237941,1.3704767455542783
4.41614720490683,1.377609412411629
4.418147271575719,1.2727845383492427
4.420147338244608,1.3288292581261294
4.422147404913497,1.1274936189519278
4.424147471582386,1.1341098027760068
4.426147538251275,1.479612792651407
4.428147604920164,1.386140524682033
4.430147671589053,1.6005271672567947
4.4321477382579415,1.5488413989955658
4.43414780492683,1.3118089345496757
4.43614787159572,1.4579173728299013
4.438147938264609,1.4853036730129072
4.440148004933498,1.2765639898765881
4.442148071602387,1.4233333887203554
4.4441481382712755,1.4177384718381092
4.446148204940164,0.7576122949042191
4.448148271609053,1.4532155095267556
4.450148338277942,1.5491869231858364
4.452148404946831,1.0427495753986722
4.454148471615721,1.2129940186497292
4.4561485382846096,1.2532604480848837
4.458148604953498,1.533400169816271
4.460148671622387,0.8418417130355484
4.462148738291276,1.0826877009580003
4.464148804960165,1.3636940825018886
4.466148871629054,1.293959659959743
4.468148938297943,1.527201133662567
4.470149004966832,1.0145906968170788
4.472149071635721,1.01801391624261
4.47414913830461,1.1435512843966698
4.476149204973499,1.2969147721910148
4.478149271642388,1.1291902661646074
4.480149338311277,1.609204872086734
4.482149404980166,0.9024064302452081
4.484149471649054,1.1281803811840194
4.486149538317944,1.1319118600682023
4.488149604986833,1.2011073757891861
4.490149671655722,1.365330951548335
4.492149738324611,0.7163790759502554
4.4941498049935,1.0877606813121754
4.496149871662388,0.9399420493381552
4.498149938331277,0.887083943735006
4.500150005000166,0.6027546942267848
4.502150071669055,0.5759571712592297
4.504150138337945,0.6021003275060672
4.506150205006834,0.9372150728477195
4.5081502716757225,0.8940262509603497
4.510150338344611,0.7955423000145652
4.5121504050135,0.9013410208022454
4.514150471682389,0.7864918777346084
4.516150538351278,0.7414633497017755
4.518150605020167,0.71915353381485
4.5201506716890565,0.6785134085437348
4.522150738357945,0.7000097720954996
4.524150805026834,0.5546093167013644
4.526150871695723,0.7649693357520252
4.528150938364612,0.41743069245390974
4.530151005033501,0.6297678006256161
4.53215107170239,0.28686898974894703
4.5341511383712785,0.39452198324922194
4.536151205040168,0.7894632038377636
4.538151271709057,0.39749112793616315
4.540151338377946,0.5738573595808554
4.542151405046835,0.8317138132072915
4.544151471715724,0.19469255384025874
4.5461515383846125,0.16387884089169524
4.548151605053501,0.2951270781464608
4.55015167172239,0.24980173300789216
4.552151738391279,0.31500464652398474
4.554151805060169,0.2917748075579128
4.556151871729058,0.3538100381745919
4.5581519383979465,0.2451868638955185
4.560152005066835,0.1026955247908749
4.562152071735724,0.09287816094643783
4.564152138404613,-0.25593310421204063
4.566152205073502,-0.14113966249540788
4.568152271742391,0.511732341425335
4.5701523384112805,0.09961461953440823
4.572152405080169,0.11663450517305693
4.574152471749058,0.09783184468454525
4.576152538417947,0.05184941734112011
4.578152605086836,0.39704554218994453
4.580152671755725,0.11379241073608243
4.582152738424614,-0.20067341032624458
4.5841528050935025,0.005206134284836652
4.586152871762392,0.23420817736432376
4.588152938431281,0.1646446081034766
4.59015300510017,-0.03363494256905659
4.592153071769059,-0.01165302362733768
4.594153138437948,-0.1639355215990684
4.596153205106837,0.1627898118895045
4.598153271775725,-0.27499465616364166
4.600153338444614,-0.0859152009422631
4.602153405113504,-0.4703096794675552
4.604153471782393,-0.2910020579923526
4.606153538451282,0.08197027279189745
4.608153605120171,-0.34366473657025765
4.610153671789059,-0.08445274200457265
4.612153738457948,-0.4033691702725892
4.614153805126837,-0.06594949687833834
4.616153871795726,-0.17118624498378232
4.618153938464615,-0.301165737810267
4.620154005133505,-0.3357530488303112
4.6221540718023935,-0.7315669752972364
4.624154138471282,-0.5804008139833611
4.626154205140171,-0.3681096172088716
4.62815427180906,-1.2545539845366398
4.630154338477949,-0.16369534563437999
4.632154405146838,-0.7839553538273387
4.634154471815727,-0.48074624859236637
4.636154538484616,-0.710122595779624
4.638154605153505,-0.8555710877914562
4.640154671822394,-0.8190962184026013
4.642154738491283,-0.7360666866499117
4.644154805160172,-0.8667502086755432
4.646154871829061,-0.7140134105855093
4.6481549384979495,-0.341479282128761
4.650155005166838,-0.9102843255671882
4.652155071835728,-0.9524911261995269
4.654155138504617,-1.0157425334568464
4.656155205173506,-0.528274153557907
4.658155271842395,-0.6854432817897076
4.6601553385112835,-1.014880087330103
4.662155405180172,-0.7628934194360268
4.664155471849061,-0.9112344986832832
4.66615553851795,-1.086898832204898
4.668155605186839,-0.7183381022759917
4.670155671855729,-1.214189459085326
4.6721557385246175,-0.825570707203563
4.674155805193506,-1.1119119808424565
4.676155871862395,-0.8443126152630075
4.678155938531284,-1.0054782584798467
4.680156005200173,-1.188011409300045
4.682156071869062,-1.487941606701162
4.684156138537951,-1.3127290501226463
4.68615620520684,-1.0778660646659541
4.688156271875729,-0.9860177334488722
4.690156338544618,-1.2924073394572975
4.692156405213507,-1.1403370539812292
4.694156471882396,-1.1486072340973257
4.696156538551285,-1.200560913070335
4.6981566052201735,-0.9008052482661433
4.700156671889062,-1.0428597547349645
4.702156738557952,-1.5313374597906395
4.704156805226841,-1.126579772233386
4.70615687189573,-1.3157512850349242
4.708156938564619,-1.0564192280920852
4.7101570052335076,-1.3251669428494903
4.712157071902396,-1.6591486078257134
4.714157138571285,-1.528956782284467
4.716157205240174,-1.3269883800864104
4.718157271909064,-1.242705945292921
4.720157338577953,-1.2144911188957037
4.722157405246842,-1.3244563363290067
4.72415747191573,-1.1941416760970764
4.726157538584619,-0.9760177401719704
4.728157605253508,-1.5687517423603894
4.730157671922397,-1.666638127279041
4.732157738591286,-1.3650640327157113
4.734157805260175,-1.595337313829451
4.7361578719290645,-1.2106534494645755
4.738157938597953,-1.4158269758070654
4.740158005266842,-1.5694929784589802
4.742158071935731,-1.1545681737655717
4.74415813860462,-1.5328848928109962
4.746158205273509,-1.4797194619892247
4.748158271942398,-1.5022343253942354
4.7501583386112864,-1.4226638729006154
4.752158405280176,-1.6545274324587802
4.754158471949065,-1.3216794200754558
4.756158538617954,-1.6047446690438372
4.758158605286843,-1.8190875854051054
4.760158671955732,-1.4688215706548893
4.7621587386246205,-1.3914984070503018
4.764158805293509,-1.283613592612326
4.766158871962398,-1.2362856374670406
4.768158938631288,-1.2242494543611644
4.770159005300177,-1.5482806663491862
4.772159071969066,-1.5242683557735015
4.7741591386379545,-1.9308091261447875
4.776159205306843,-1.4173257082590385
4.778159271975732,-1.5569893409170887
4.780159338644621,-1.5837489578556225
4.78215940531351,-1.4562704712976005
4.784159471982399,-1.6589522895795445
4.7861595386512885,-1.6723201872088294
4.788159605320177,-1.4224204223249053
4.790159671989066,-1.531152190999612
4.792159738657955,-1.5992535693274406
4.794159805326844,-1.6614048467179843
4.796159871995733,-1.4859028801074579
4.798159938664622,-1.571443275093605
4.8001600053335105,-1.6188065313718512
4.8021600720024,-1.3519157315668062
4.804160138671289,-1.9360239120735163
4.806160205340178,-1.422836387273182
4.808160272009067,-1.461799887726996
4.810160338677956,-1.429825413082461
4.8121604053468445,-1.4390195311859908
4.814160472015733,-1.3699180248145444
4.816160538684622,-1.5627398597466335
4.818160605353512,-1.3433670054178395
4.820160672022401,-1.4783366316635869
4.82216073869129,-1.2967892473525666
4.8241608053601785,-1.565530694667821
4.826160872029067,-1.6062285491459323
4.828160938697956,-1.4917574695170017
4.830161005366845,-1.2557957767509544
4.832161072035734,-1.6497691794883993
4.834161138704624,-1.6588726432330654
4.836161205373513,-1.3312758503371551
4.838161272042401,-1.5648412920144492
4.84016133871129,-1.428743082793658
4.842161405380179,-1.5009898810837483
4.844161472049068,-1.9861934422653869
4.846161538717957,-1.429150181405903
4.848161605386846,-1.5343300779417162
4.850161672055735,-1.2162473574075972
4.852161738724624,-1.7393599104417752
4.854161805393513,-1.1436757292819624
4.856161872062402,-1.6192838740826416
4.858161938731291,-1.407590836043615
4.86016200540018,-1.5782164903909934
4.862162072069069,-1.3108863842043799
4.864162138737957,-1.2992133437478488
4.866162205406846,-1.4984103961572535
4.868162272075736,-1.4103445704358724
4.870162338744625,-1.0916154143402086
4.872162405413514,-1.3252859255996698
4.874162472082403,-1.35381041780311
4.8761625387512915,-0.9314847819978552
4.87816260542018,-1.1720791781159987
4.880162672089069,-1.505694796357705
4.882162738757958,-0.8043168682721427
4.884162805426848,-1.105771397085798
4.886162872095737,-1.0246999230491178
4.8881629387646255,-1.2420996119134418
4.890163005433514,-0.7887630501347918
4.892163072102403,-0.9329702572758283
4.894163138771292,-1.0431804717532427
4.896163205440181,-1.0728041731526983
4.89816327210907,-0.9612059302390333
4.900163338777959,-1.2676282043559512
4.902163405446848,-0.8553017482153435
4.904163472115737,-1.0795083032657273
4.906163538784626,-0.8954513398160153
4.908163605453515,-1.2401238642898091
4.910163672122404,-0.8112701764841532
4.912163738791293,-1.132924022932611
4.9141638054601815,-1.051516930829161
4.91616387212907,-0.7632405855825601
4.91816393879796,-0.9762802142207044
4.920164005466849,-1.1761131202223916
4.922164072135738,-0.8857011730568378
4.924164138804627,-0.8948344632603408
4.9261642054735155,-0.4987666990420187
4.928164272142404,-0.41993939584861634
4.930164338811293,-0.8626845152596869
4.932164405480182,-0.9505110451254083
4.934164472149072,-0.7462306485741205
4.936164538817961,-1.0146214932179922
4.9381646054868495,-0.49797957766290535
4.940164672155738,-0.7321661890156376
4.942164738824627,-0.5941311354348638
4.944164805493516,-0.6723849091726213
4.946164872162405,-0.12407232380994515
4.948164938831294,-0.6343812220901254
4.950165005500183,-0.5561366899464741
4.952165072169072,-0.2994874719912343
4.954165138837961,-0.3112458445910803
4.95616520550685,-0.5864737449458155
4.958165272175739,-0.19595930100060904
4.960165338844628,-0.5629333830285841
4.962165405513517,-0.554598068481678
4.964165472182406,-0.2565303772472315
4.966165538851294,-0.4106807027185895
4.968165605520184,-0.35670520237282105
4.970165672189073,-0.22119462788748795
4.972165738857962,-0.32732766550840153
4.974165805526851,-0.35568424749670013
4.97616587219574,-0.19086113607523023
4.978165938864628,0.11945082176215432
4.980166005533517,-0.18693805517711415
4.982166072202406,0.10679354640601776
4.984166138871296,-0.0815753463787195
4.986166205540185,-0.20998760221449073
4.988166272209074,0.03566695826819616
4.9901663388779625,-0.23178705624210716
4.992166405546851,-0.22658522632949912
4.99416647221574,0.00901731518263453
4.996166538884629,-0.0041750927124436996
4.998166605553518,0.22606322287480157
5.000166672222408,-0.1065314988730864
5.0021667388912965,0.09481496249902002
5.004166805560185,0.09636428506940797
5.006166872229074,0.30389180011768757
5.008166938897963,0.07487217382258637
5.010167005566852,0.06248009929552524
5.012167072235741,0.4015678935200594
5.01416713890463,0.25933328980092196
5.0161672055735185,0.0038469425383043654
5.018167272242408,0.04283854499998885
5.020167338911297,0.18945724452314616
5.022167405580186,0.22927897336410305
5.024167472249075,0.34142652368154
5.026167538917964,0.20134306227457593
5.0281676055868525,0.18408997906366845
5.030167672255741,0.38356692549950194
5.03216773892463,0.24288708097288916
5.03416780559352,0.3330967811527989
5.036167872262409,0.2752983396346322
5.038167938931298,0.24507549964809297
5.0401680056001865,0.6523468179202767
5.042168072269075,0.5715268666790286
5.044168138937964,0.41134125089009954
5.046168205606853,0.7772997206928289
5.048168272275742,0.5369431543822115
5.050168338944632,0.44067381392539895
5.0521684056135205,0.7642838601497808
5.054168472282409,0.5204584431596004
5.056168538951298,0.3305465128578406
5.058168605620187,0.11410280517307214
5.060168672289076,0.7890042998139243
5.062168738957965,0.39904302355407
5.064168805626854,0.7737056902937184
5.0661688722957425,0.8684156123535908
5.068168938964632,0.3490539211000321
5.070169005633521,0.7723215820540988
5.07216907230241,0.9103845384930619
5.074169138971299,0.6845811223426739
5.076169205640188,0.5278478555231201
5.0781692723090766,1.2766960763693802
5.080169338977965,0.6110287743696697
5.082169405646854,0.6020997332834295
5.084169472315744,0.5848016265506127
5.086169538984633,0.8898891196209052
5.088169605653522,1.2376702007902631
5.090169672322411,0.642160127642606
5.092169738991299,1.3381595356984057
5.094169805660188,0.60824520959656
5.096169872329077,1.3126153985927116
5.098169938997966,0.7847332161119212
5.100170005666856,0.9955815943207881
5.102170072335745,0.8441163565009028
5.1041701390046335,1.1426990943019226
5.106170205673522,1.1331470857779546
5.108170272342411,0.9385544819476737
5.1101703390113,1.0363700423326279
5.112170405680189,0.7178105616509884
5.114170472349078,1.3175610348382822
5.1161705390179675,1.2505645333849693
5.118170605686856,1.2059806928424972
5.120170672355745,1.2264562555915317
5.122170739024634,1.1557489493827733
5.124170805693523,0.9006408942100159
5.126170872362412,0.8740329653175948
5.128170939031301,1.2052453408208663
5.1301710057001895,0.8700085450585713
5.132171072369078,1.4927427937299642
5.134171139037968,0.8453546900028046
5.136171205706857,1.3601051232233365
5.138171272375746,1.41730607177377
5.140171339044635,0.8452087031832538
5.1421714057135235,1.164533450436679
5.144171472382412,1.4868650954987834
5.146171539051301,1.654716165496441
5.14817160572019,1.4244512941462895
5.15017167238908,1.0844142513823483
5.152171739057969,1.456055740788582
5.1541718057268575,1.6286078249964366
5.156171872395746,1.5570757110852804
5.158171939064635,1.7360320461564938
5.160172005733524,1.597615718429505
5.162172072402413,1.6344675912934161
5.164172139071302,1.2185400126608301
5.1661722057401915,1.4147295988409032
5.16817227240908,1.5588272831547312
5.170172339077969,1.5932664415991238
5.172172405746858,1.2776822812400208
5.174172472415747,1.5909455970474071
5.176172539084636,1.3669818572058092
5.178172605753525,1.3670085114682438
5.1801726724224135,1.1434244799307318
5.182172739091302,1.184306747322898
5.184172805760192,1.510573871560547
5.186172872429081,1.342292937868952
5.18817293909797,1.5970353848042822
5.190173005766859,1.6416622781783496
5.1921730724357475,1.3500161742378034
5.194173139104636,1.4415936847413864
5.196173205773525,1.375985381023179
5.198173272442414,1.419505115420125
5.200173339111304,1.3474366256863044
5.202173405780193,1.54647287701711
5.204173472449082,1.304245524963283
5.20617353911797,1.4541672309345037
5.208173605786859,1.7435798768878685
5.210173672455748,1.1100642579849747
5.212173739124637,1.3433739364173358
5.214173805793526,1.556689417437575
5.216173872462416,1.2816015995810501
5.2181739391313045,1.9916423179697016
5.220174005800193,1.2936831647277711
5.222174072469082,1.4084272757072662
5.224174139137971,1.6165009716231338
5.22617420580686,1.4081260023198225
5.228174272475749,1.2078189274896247
5.230174339144638,1.2911443147122
5.232174405813527,1.0472889728975416
5.234174472482416,1.6400830761282938
5.236174539151305,1.1237884333380692
5.238174605820194,1.5373561753911178
5.240174672489083,1.4776478661644383
5.242174739157972,1.6105592490812275
5.2441748058268605,1.228380723623872
5.246174872495749,1.6603145869444018
5.248174939164638,1.2356230352233193
5.250175005833528,1.418246018453814
5.252175072502417,1.698636389607636
5.254175139171306,1.4178976482009724
5.2561752058401945,1.2454355533076782
5.258175272509083,1.498502612059471
5.260175339177972,1.0906703086488079
5.262175405846861,1.5961098428802747
5.26417547251575,1.3693073469915396
5.26617553918464,1.363940447664683
5.2681756058535285,1.2919783635834645
5.270175672522417,1.4016146477250468
5.272175739191306,1.3093932071788024
5.274175805860195,1.147221140732274
5.276175872529084,1.1634512971574296
5.278175939197973,1.1316299300398158
5.280176005866862,1.202307185977219
5.282176072535751,1.5502225622507753
5.28417613920464,1.3605776258322748
5.286176205873529,1.3652846426064762
5.288176272542418,1.0519513201250639
5.290176339211307,1.316718586252072
5.292176405880196,1.507722467191282
5.2941764725490845,1.072870875853413
5.296176539217973,1.1903170719910339
5.298176605886862,1.5239691654890593
5.300176672555752,0.874315196803154
5.302176739224641,1.6010957661102776
5.30417680589353,1.1197400273539893
5.3061768725624185,1.268450302589754
5.308176939231307,1.0871881104740402
5.310177005900196,1.2620869499384986
5.312177072569085,1.2919744791821088
5.314177139237974,1.071141422540723
5.316177205906864,0.6896831570639206
5.318177272575753,1.0160894614166374
5.320177339244641,0.9505301340603308
5.32217740591353,0.7887943529173629
5.324177472582419,0.6425841355712893
5.326177539251308,0.8672698828498123
5.328177605920197,1.1992219212131268
5.330177672589086,0.5911629771656699
5.3321777392579754,0.6752139502577157
5.334177805926864,0.7860973576372923
5.336177872595753,0.8787741182740568
5.338177939264642,0.39583643982234834
5.340178005933531,0.8459342228282439
5.34217807260242,1.0652564621600102
5.344178139271309,0.7318933470787821
5.346178205940197,0.9734492087386397
5.348178272609086,0.725326326872997
5.350178339277976,0.776807953437942
5.352178405946865,0.5793488245604499
5.354178472615754,0.9293592753269897
5.356178539284643,0.7415700399942784
5.3581786059535315,0.5258994268027775
5.36017867262242,0.6863646630236921
5.362178739291309,0.8354391108893549
5.364178805960198,0.2206057329360635
5.366178872629088,0.5796288659168266
5.368178939297977,0.843799447397152
5.3701790059668655,0.22806269768977155
5.372179072635754,0.6440892781575182
5.374179139304643,0.44980176073044364
5.376179205973532,0.5594839414015085
5.378179272642421,0.35517267918060635
5.38017933931131,0.38616654901756503
5.3821794059801995,0.3895749577616242
5.384179472649088,0.3931623283776219
5.386179539317977,0.3163136761065411
5.388179605986866,0.3209860267506435
5.390179672655755,-0.259570721780223
5.392179739324644,0.3597221824780688
5.394179805993533,-0.09863856046438096
5.3961798726624215,0.03706445998168595
5.398179939331311,0.06238876749213779
5.4001800060002,0.2096285121721741
5.402180072669089,0.04116977456763955
5.404180139337978,0.17459335895521627
5.406180206006867,-0.23534459780561431
5.4081802726757555,0.011312471626972145
5.410180339344644,0.13722291812514026
5.412180406013533,-0.3395792330762859
5.414180472682422,0.18427382186389893
5.416180539351312,0.11779736430437228
5.418180606020201,-0.21333776652418698
5.4201806726890895,0.3145405875450245
5.422180739357978,-0.6163355099643637
5.424180806026867,-0.09305698222884023
5.426180872695756,-0.4082706739730436
5.428180939364645,-0.01636834122828347
5.430181006033534,0.17531285496158164
5.432181072702424,-0.2320725451572468
5.434181139371312,-0.2037935826726026
5.436181206040201,-0.41828293202421674
5.43818127270909,-0.3965964891429913
5.440181339377979,-0.36912224787261483
5.442181406046868,-0.3789920131319477
5.444181472715757,-0.29602444068075845
5.4461815393846456,-0.4359711369932437
5.448181606053535,-0.3662011935357799
5.450181672722424,-0.5159205082288777
5.452181739391313,-0.4766535307558665
5.454181806060202,-0.8105614481374358
5.456181872729091,-0.1960398859411508
5.45818193939798,0.036481111198773564
5.460182006066868,-0.537696746396385
5.462182072735757,0.10039336711127123
5.464182139404646,-0.7657193284157244
5.466182206073536,-0.5467185453771504
5.468182272742425,-0.7140687018506225
5.470182339411314,-0.44071095808562377
5.4721824060802025,-0.8388115016015629
5.474182472749091,-0.3417690512422613
5.47618253941798,-0.6234104700968506
5.478182606086869,-0.7554796706885606
5.480182672755758,-0.6007939389512863
5.482182739424648,-0.43250045259371006
5.4841828060935365,-0.3565388378040177
5.486182872762425,-0.9425023997497771
5.488182939431314,-0.8301918347803152
5.490183006100203,-0.9844893948798552
5.492183072769092,-0.47618031410583195
5.494183139437981,-0.7622228114387944
5.49618320610687,-0.5228808909226814
5.498183272775759,-0.9702398772419366
5.500183339444648,-1.368006765829044
5.502183406113537,-0.6479574153827143
5.504183472782426,-0.9723708824205415
5.506183539451315,-1.240249814751434
5.508183606120204,-0.8565928721566177
5.5101836727890925,-0.9302509235083248
5.512183739457981,-1.0845671488462698
5.514183806126871,-1.0255590180858978
5.51618387279576,-0.9179799629510259
5.518183939464649,-1.2222570786540299
5.520184006133538,-1.0904324814368447
5.5221840728024265,-1.200315263818951
5.524184139471315,-0.9015268853023795
5.526184206140204,-1.1899158494768796
5.528184272809093,-1.5840241665059422
5.530184339477982,-0.7914470964112127
5.532184406146872,-0.941984086875053
5.5341844728157605,-1.2656188448766874
5.536184539484649,-0.9247424767160668
5.538184606153538,-0.8915956349790668
5.540184672822427,-1.0908668974106153
5.542184739491316,-1.0426377635721746
5.544184806160205,-1.077797195953084
5.546184872829094,-1.4624947949208629
5.548184939497983,-1.0331259830231283
5.550185006166872,-1.0913087603424998
5.552185072835761,-1.172985171023321
5.55418513950465,-0.9547519948224927
5.556185206173539,-1.0008998341100757
5.558185272842428,-1.1592021639104846
5.5601853395113165,-1.319141609567253
5.562185406180205,-1.5790857218864718
5.564185472849095,-1.307254127278601
5.566185539517984,-1.4769963670345714
5.568185606186873,-1.4078094808421495
5.570185672855762,-1.5708681137290523
5.572185739524651,-1.304302722696298
5.574185806193539,-1.0399167305486317
5.576185872862428,-1.5040660639034575
5.578185939531317,-1.3641620808447374
5.580186006200206,-1.576448676379558
5.582186072869096,-1.1196730946607931
5.584186139537985,-1.0348113439841153
5.5861862062068735,-1.8730951490238326
5.588186272875762,-1.2516581848504702
5.590186339544651,-1.5213475881122984
5.59218640621354,-1.2999821061014005
5.594186472882429,-1.4511369937264529
5.596186539551318,-1.3790198778149647
5.5981866062202075,-1.1742730691954781
5.600186672889096,-1.190490662435515
5.602186739557985,-1.1970172295414643
5.604186806226874,-1.3789148017485706
5.606186872895763,-1.6351100236948424
5.608186939564652,-1.2586446530792426
5.610187006233541,-1.3988704037385655
5.6121870729024295,-1.4645900592703212
5.614187139571319,-1.5912721937140475
5.616187206240208,-1.3944847367119768
5.618187272909097,-1.8959095717057202
5.620187339577986,-1.4707645582449682
5.622187406246875,-1.1513925480744143
5.6241874729157635,-1.9534914803054313
5.626187539584652,-1.265009815842053
5.628187606253541,-1.40486984695396
5.630187672922431,-1.4606371554391657
5.63218773959132,-1.3407188965101464
5.634187806260209,-1.355507041068086
5.6361878729290975,-0.7804123674289674
5.638187939597986,-1.498210280404188
5.640188006266875,-1.487079865022118
5.642188072935764,-1.5143707857965547
5.644188139604653,-1.5547366249224104
5.646188206273542,-1.7343374074379396
5.6481882729424315,-1.3216977500050326
5.65018833961132,-1.2681376115530987
5.652188406280209,-1.2455775919529104
5.654188472949098,-1.7086350815833435
5.656188539617987,-1.6521421146161592
5.658188606286876,-1.484265376936432
5.660188672955765,-1.4009645146005303
5.6621887396246535,-1.950084005393193
5.664188806293543,-1.0196220465169623
5.666188872962432,-1.7410881261925106
5.668188939631321,-1.356791326192577
5.67018900630021,-1.5713802914303683
5.672189072969099,-1.3746875167755213
5.6741891396379875,-1.3777081915615925
5.676189206306876,-1.4208478693821804
5.678189272975765,-1.5646463972691516
5.680189339644655,-1.4058172319066167
5.682189406313544,-1.4608838954939243
5.684189472982433,-1.4516714110685274
5.686189539651322,-1.225420463634255
5.68818960632021,-0.9809101557720332
5.690189672989099,-1.5154681955361893
5.692189739657988,-1.4200588266651566
5.694189806326877,-1.1883228113490505
5.696189872995766,-1.2384956023494487
5.698189939664656,-1.1434412526162878
5.7001900063335444,-1.2942379367829147
5.702190073002433,-1.3067855252013378
5.704190139671322,-1.1378371696581429
5.706190206340211,-1.1629079309415875
5.7081902730091,-1.2867073366570159
5.710190339677989,-0.9347230027935183
5.712190406346878,-1.2060697436534675
5.714190473015767,-0.9638640854127537
5.716190539684656,-1.101978301444965
5.718190606353545,-1.3242988568084242
5.720190673022434,-1.6380390814406893
5.722190739691323,-0.7948223680855864
5.724190806360212,-1.350839810092535
5.7261908730291005,-1.080396642581777
5.728190939697989,-1.1869961357016239
5.730191006366879,-1.188681737271399
5.732191073035768,-0.5581197529762227
5.734191139704657,-1.0650668098733562
5.736191206373546,-1.0294457594830482
5.7381912730424345,-1.006312259558789
5.740191339711323,-0.869301428184315
5.742191406380212,-0.6361564184467706
5.744191473049101,-1.0676619157591296
5.74619153971799,-0.9430431065294582
5.74819160638688,-0.693551484707441
5.7501916730557685,-0.8136587424657736
5.752191739724657,-0.8781099640994069
5.754191806393546,-0.9770585749794589
5.756191873062435,-0.9554527761304881
5.758191939731324,-0.8546732459410676
5.760192006400213,-0.6100293698552609
5.762192073069102,-0.9764576156594722
5.764192139737991,-0.5893507534388834
5.76619220640688,-0.7919092274393185
5.768192273075769,-0.40049329201195494
5.770192339744658,-0.6619998900734559
5.772192406413547,-0.7255304717124063
5.774192473082436,-0.8743531445375139
5.7761925397513245,-0.4165034357763089
5.778192606420213,-0.6738563393563028
5.780192673089103,-0.8082022995278481
5.782192739757992,-0.43420477936736307
5.784192806426881,-0.8446852755941107
5.78619287309577,-0.6472664876326144
5.7881929397646585,-0.6342889489037248
5.790193006433547,-0.3135800015114382
5.792193073102436,-0.6302779617871082
5.794193139771325,-0.603707272538289
5.796193206440215,-0.1979477969817741
5.798193273109104,-0.12231849469696393
5.800193339777993,-0.42499460735405126
5.802193406446881,-0.4429974658885107
5.80419347311577,-0.47755543178327897
5.806193539784659,-0.4354805611865867
5.808193606453548,-0.8498017600280767
5.810193673122437,-0.7357462746566049
5.812193739791326,-0.3703643263032791
5.814193806460215,-0.6656012715281211
5.816193873129104,-0.031000379849449616
5.818193939797993,0.09067055797011642
5.820194006466882,-0.01518535052123468
5.822194073135771,0.04577240603827873
5.82419413980466,-0.004839587337336096
5.826194206473549,0.2768365328282142
5.828194273142437,0.00476160121376383
5.830194339811327,0.20650145766850203
5.832194406480216,-0.19039594382389408
5.834194473149105,-0.07585656833240124
5.836194539817994,-0.16590175166358456
5.838194606486883,0.13932224174938712
5.8401946731557715,0.2725951659513561
5.84219473982466,-0.03447345699894816
5.844194806493549,0.3392448056798819
5.846194873162439,-0.08069887082967431
5.848194939831328,0.27694736949877363
5.850195006500217,0.3683375590385821
5.8521950731691055,0.1856592288452934
5.854195139837994,-0.0777175771482149
5.856195206506883,0.30020520652751276
5.858195273175772,0.1373568924518387
5.860195339844661,0.5521117059315469
5.86219540651355,0.43252044711738646
5.8641954731824395,0.38613447240031
5.866195539851328,0.142513264907401
5.868195606520217,0.7083198661572108
5.870195673189106,0.3426728134649869
5.872195739857995,0.32225611846711977
5.874195806526884,0.43366376032161463
5.876195873195773,0.1918879013722261
5.8781959398646615,0.4437410064448802
5.880196006533551,0.43560618514604144
5.88219607320244,0.4037495048697781
5.884196139871329,0.428774782245011
5.886196206540218,0.7913659006507541
5.888196273209107,0.5028350176594278
5.8901963398779955,0.11055326021486778
5.892196406546884,0.4616212831801684
5.894196473215773,1.1367867808054757
5.896196539884663,0.5589377461366943
5.898196606553552,0.6370781406749959
5.900196673222441,1.1283728452807869
5.9021967398913295,0.8003688004230753
5.904196806560218,1.098307357435325
5.906196873229107,0.8628065698902615
5.908196939897996,0.8206258146254053
5.910197006566885,0.6493855013558865
5.912197073235775,0.8503420676266329
5.914197139904664,1.0456122640279664
5.916197206573552,0.30902291777657875
5.918197273242441,0.9097022877019654
5.92019733991133,1.0720501765610608
5.922197406580219,0.5822560339238803
5.924197473249108,0.8421729183869562
5.926197539917997,1.1496239318777055
5.9281976065868855,1.001532972808055
5.930197673255775,0.69559072957468
5.932197739924664,1.0654999930917546
5.934197806593553,0.8167297227445367
5.936197873262442,0.8284885938237463
5.938197939931331,1.2054217251196528
5.94019800660022,1.061654956963854
5.942198073269108,0.795713487842848
5.944198139937997,1.6695236694432416
5.946198206606887,1.2647672159058363
5.948198273275776,1.4984210257925832
5.950198339944665,1.1129172807475485
5.952198406613554,1.2078240009881998
5.9541984732824424,1.1136156353013664
5.956198539951331,0.9708980353618173
5.95819860662022,1.2923219094842588
5.960198673289109,1.0743314355159055
5.962198739957999,1.1136516008582202
5.964198806626888,1.1866344896677765
5.9661988732957765,1.3140360757425065
5.968198939964665,1.0633077701855085
5.970199006633554,1.059753560407732
5.972199073302443,1.020297565910832
5.974199139971332,1.4461042567218767
5.976199206640221,1.215945552945541
5.97819927330911,1.3297645192212986
5.980199339977999,1.6825340531762274
5.982199406646888,1.2575477720135684
5.984199473315777,1.221654132704548
5.986199539984666,1.396493194457624
5.988199606653555,1.292540750250731
5.990199673322444,1.1649657571507879
5.9921997399913325,1.0485786309512788
5.994199806660221,1.3978007455283594
5.996199873329111,1.6801284821724332
5.998199939998,1.5186594876367616
6.000200006666889,1.0219052498975025
6.002200073335778,1.2261893594149587
6.0042001400046665,1.5506528624938807
6.006200206673555,1.4749332462093163
6.008200273342444,1.3822280241989788
6.010200340011333,1.3990095618250171
6.012200406680223,1.3355108680106063
6.014200473349112,1.3214548884573134
6.0162005400180005,1.3217769757531652
6.018200606686889,2.02213636611667
6.020200673355778,1.5775455912715235
6.022200740024667,1.5586614637340603
6.024200806693556,1.1296481395384583
6.026200873362445,1.1920280461924377
6.0282009400313346,1.5199821997792853
6.030201006700223,1.3897277624011952
6.032201073369112,1.6510345529683863
6.034201140038001,1.8130208212256427
6.03620120670689,1.571787575444996
6.038201273375779,1.7103435676258014
6.040201340044668,1.522889811720614
6.0422014067135565,1.4144656859774232
6.044201473382445,1.4610210642671069
6.046201540051335,1.429231303224654
6.048201606720224,1.624671759402339
6.050201673389113,1.5441443885888109
6.052201740058002,1.5393169801809294
6.054201806726891,1.4844173291321474
6.056201873395779,1.7763982788756316
6.058201940064668,1.4224214953937175
6.060202006733557,1.854101290996545
6.062202073402447,1.9227242773065691
6.064202140071336,1.5049532021205496
6.066202206740225,1.2122695140834137
6.0682022734091134,1.4062412614515534
6.070202340078002,1.4670412735932017
6.072202406746891,1.740978216095607
6.07420247341578,1.351015397814222
6.076202540084669,1.3493514607876504
6.078202606753559,1.5631313788204957
6.0802026734224475,1.1601466077172635
6.082202740091336,1.2005537539620215
6.084202806760225,1.404472450318744
6.086202873429114,1.6584122201301188
6.088202940098003,1.3270481855320284
6.090203006766892,1.491169884712562
6.092203073435781,1.2464779574084393
6.0942031401046695,1.2838761362598516
6.096203206773559,1.5208844203304455
6.098203273442448,1.1613003102637385
6.100203340111337,1.3665452601306634
6.102203406780226,1.1984135652734225
6.104203473449115,1.438981895189416
6.1062035401180035,1.104088171859195
6.108203606786892,1.2659234826238934
6.110203673455781,1.2138488729765704
6.112203740124671,1.5048076904988132
6.11420380679356,0.8641679111096885
6.116203873462449,1.249458423083319
6.1182039401313375,1.1446323581499116
6.120204006800226,1.058371250064842
6.122204073469115,1.2278007762948686
6.124204140138004,1.177574071302494
6.126204206806893,1.5197132579675297
6.128204273475783,1.1355877088878485
6.1302043401446715,1.1514746309277866
6.13220440681356,1.325999520282292
6.134204473482449,1.4513526183869232
6.136204540151338,1.1497762363997897
6.138204606820227,1.1781578419340577
6.140204673489116,1.36382441130532
6.142204740158005,1.1465852045226237
6.1442048068268935,1.0671990563150293
6.146204873495783,1.1625459875494006
6.148204940164672,1.1631074257093026
6.150205006833561,1.2309065360471867
6.15220507350245,1.2071061580039129
6.154205140171339,0.9972611397019541
6.1562052068402275,1.1183472866300668
6.158205273509116,1.0997110977598952
6.160205340178005,0.8824122008654174
6.162205406846895,1.071606782197649
6.164205473515784,1.226284764832606
6.166205540184673,0.419118714642244
6.168205606853562,1.0602887168594264
6.17020567352245,1.3141823120039626
6.172205740191339,0.794790139575446
6.174205806860228,0.460119180304967
6.176205873529117,0.699182601595252
6.178205940198007,0.749144856057161
6.180206006866896,0.7966404827242674
6.182206073535784,0.8569667683995827
6.184206140204673,0.6282968934609459
6.186206206873562,0.3013549035287834
6.188206273542451,0.6300685392498726
6.19020634021134,0.7223572102905068
6.192206406880229,0.804547420709077
6.1942064735491185,0.44910328913735853
6.196206540218007,0.6672640435118963
6.198206606886896,0.6242568067075581
6.200206673555785,0.5841359071983604
6.202206740224674,0.9788876749866691
6.204206806893563,0.28642393321446374
6.206206873562452,0.08898762741603589
6.2082069402313405,0.45751339979505923
6.210207006900229,0.5124705492750036
6.212207073569119,-0.05096918038779863
6.214207140238008,0.49308596545567374
6.216207206906897,0.5482475725186353
6.218207273575786,0.3893175625341721
6.2202073402446745,-0.11250135288429552
6.222207406913563,0.3479389530898213
6.224207473582452,0.2186849131868317
6.226207540251341,0.30798927091484185
6.228207606920231,0.28320167583979633
6.23020767358912,0.14700870059648483
6.2322077402580085,0.04547194147862735
6.234207806926897,0.31287062213863437
6.236207873595786,0.31056445936081306
6.238207940264675,0.09553817868334229
6.240208006933564,0.2819091239569686
6.242208073602453,0.22149607095350288
6.2442081402713425,0.07523329099523053
6.246208206940231,0.14523338613382175
6.24820827360912,0.06669322254747334
6.250208340278009,-0.11605196888062597
6.252208406946898,-0.2339832343657426
6.254208473615787,0.037829840638392925
6.256208540284676,-0.09133487560540776
6.2582086069535645,0.0037838367255093597
6.260208673622453,-0.10079911679538728
6.262208740291343,-0.08064857409185393
6.264208806960232,-0.23156159445126473
6.266208873629121,-0.09172216043841581
6.26820894029801,-0.22130564586159865
6.2702090069668985,-0.22030218092046633
6.272209073635787,-0.47296826094559263
6.274209140304676,-0.13873908751745404
6.276209206973565,-0.2817164355498487
6.278209273642455,-0.1431441652956173
6.280209340311344,-0.06435590750586928
6.282209406980233,-0.4594538169039398
6.284209473649121,-0.444578081983646
6.28620954031801,-0.4444165940522274
6.288209606986899,-0.25201375384326147
6.290209673655788,-0.543726781675119
6.292209740324677,-0.5487463037792243
6.294209806993567,-0.5596093999221926
6.296209873662455,-0.6776626352759917
6.298209940331344,-0.7464679599102184
6.300210007000233,-0.708398645390484
6.302210073669122,-0.4052620761699043
6.304210140338011,-0.8050576238696445
6.3062102070069,-0.7611206268628729
6.308210273675789,-0.37894576192354773
6.310210340344678,-1.180351373596573
6.312210407013567,-0.5414164957697785
6.314210473682456,-0.9595625225272957
6.316210540351345,-0.8543774622619744
6.318210607020234,-0.7913249604565634
6.320210673689123,-0.7704467298953203
