time,lead1
0.0,0.13486516565435375
0.002000066668888963,-0.04051508477147028
0.004000133337777926,-0.14114289300634972
0.006000200006666888,0.38268870089143164
0.008000266675555852,-0.18028877702734444
0.010000333344444815,0.06332199034194155
0.012000400013333776,-0.31708455434468485
0.01400046668222274,0.31523305233691035
0.016000533351111703,0.09938593198350265
0.018000600020000666,0.0887518579956379
0.02000066668888963,0.5137852358969669
0.022000733357778593,-0.10111565845627912
0.024000800026667553,0.2708311819957688
0.026000866695556516,0.1491308317987336
0.02800093336444548,0.5037129049948005
0.030001000033334443,0.4789770363887518
0.032001066702223406,0.5674137633703146
0.034001133371112366,0.25099336590096033
0.03600120004000133,0.28480221135620426
0.03800126670889029,0.2854830944741651
0.04000133337777926,0.44777371402514693
0.04200140004666822,0.6672520851507092
0.044001466715557186,0.36143651438937635
0.046001533384446146,0.08700073478007297
0.048001600053335106,0.2961493198171955
0.05000166672222407,0.35961778729981553
0.05200173339111303,0.6469620356364991
0.054001800060002,0.563659014307522
0.05600186672889096,0.6398680522425275
0.058001933397779926,0.6157645143485092
0.060002000066668885,0.6661823807917995
0.06200206673555785,0.7500128995325843
0.06400213340444681,0.6493489717666965
0.06600220007333578,0.5984609032203652
0.06800226674222473,0.9913124990768492
0.0700023334111137,0.6784110278102861
0.07200240008000267,1.0559870083631353
0.07400246674889163,0.5270796476974431
0.07600253341778059,0.3750312061708315
0.07800260008666955,0.7742427871005056
0.08000266675555852,1.1043507610794054
0.08200273342444747,0.9281243010062761
0.08400280009333644,0.9263064807535041
0.0860028667622254,0.8872918697244218
0.08800293343111437,1.0321996231048642
0.09000300010000332,0.973864582082922
0.09200306676889229,0.9700384275072605
0.09400313343778126,1.0622538290806196
0.09600320010667021,1.0773289517043705
0.09800326677555918,1.3608884168943083
0.10000333344444814,0.8667982676712682
0.10200340011333711,1.009639647270206
0.10400346678222606,0.9929668551927396
0.10600353345111503,1.0825716700459573
0.108003600120004,1.131411683208586
0.11000366678889296,1.205826279966416
0.11200373345778192,1.0362531449432764
0.11400380012667088,0.7090032941851552
0.11600386679555985,1.5678901830541085
0.1180039334644488,0.8286624500705034
0.12000400013333777,1.2212222335253629
0.12200406680222674,1.0974505438599886
0.1240041334711157,1.0562123848397258
0.12600420014000466,1.1065320696611027
0.12800426680889362,1.1671109952201462
0.1300043334777826,0.8859625829643427
0.13200440014667156,1.4279751080111196
0.13400446681556052,1.414529446841372
0.13600453348444946,1.2080065725030436
0.13800460015333843,1.4424560629904173
0.1400046668222274,1.4359398366502014
0.14200473349111636,1.1302310832013687
0.14400480016000533,1.6205431338037148
0.1460048668288943,1.4392380797336066
0.14800493349778326,1.603319225992231
0.1500050001666722,1.4515159405689235
0.15200506683556117,1.2269851332567931
0.15400513350445014,0.9952812247474248
0.1560052001733391,1.3029715839790534
0.15800526684222807,1.3685496001745476
0.16000533351111704,1.3056794128005058
0.162005400180006,1.4054526418581652
0.16400546684889494,1.2750711637354815
0.1660055335177839,1.4373186951215142
0.16800560018667288,1.5076364255670511
0.17000566685556184,1.2561709977752618
0.1720057335244508,1.5151652248736414
0.17400580019333978,1.3993141895603154
0.17600586686222874,1.4564513241270738
0.17800593353111768,1.8296456544300335
0.18000600020000665,1.6235676249909206
0.18200606686889562,0.9143979589506487
0.18400613353778458,1.5071338219837729
0.18600620020667355,1.2519006661685443
0.18800626687556252,1.4815382691653602
0.19000633354445148,1.5185477237416982
0.19200640021334042,1.477353426221118
0.1940064668822294,1.5478220133006488
0.19600653355111836,1.70126972217613
0.19800660022000732,1.347161512317959
0.2000066668888963,1.4303214143563456
0.20200673355778526,1.5261783392402317
0.20400680022667422,1.0785447390830187
0.2060068668955632,1.493017196220898
0.20800693356445213,1.489281121687612
0.2100070002333411,0.9179319426425275
0.21200706690223006,1.3510019999957426
0.21400713357111903,1.2128260090589813
0.216007200240008,1.2865301411785832
0.21800726690889696,1.1669625500238991
0.22000733357778593,1.6131367333892346
0.22200740024667487,1.2321515430966454
0.22400746691556384,1.0168580461191787
0.2260075335844528,1.5094010763393149
0.22800760025334177,1.7153253862739588
0.23000766692223074,1.630558026639195
0.2320077335911197,1.2611172108979658
0.23400780026000867,1.7080229743459985
0.2360078669288976,1.385223357453224
0.23800793359778658,1.3565068373477858
0.24000800026667554,1.6153945644918197
0.2420080669355645,1.24087320832542
0.24400813360445348,1.4836156462706471
0.24600820027334244,1.1332440849330538
0.2480082669422314,1.2459683681498985
0.25000833361112035,1.0336145565955719
0.2520084002800093,1.4450381839104078
0.2540084669488983,1.4615980650216043
0.25600853361778725,1.690180130847967
0.2580086002866762,1.3929434170713157
0.2600086669555652,2.0449718710430855
0.26200873362445415,1.4827219915273158
0.2640088002933431,1.5761547448137667
0.2660088669622321,1.3588064483405966
0.26800893363112105,1.2832351007366873
0.27000900030001,1.085499089124812
0.2720090669688989,1.3407947613564988
0.2740091336377879,1.3023724458452697
0.27600920030667686,1.1674864287036828
0.2780092669755658,1.4645648392040076
0.2800093336444548,1.4165665696556795
0.28200940031334376,1.0718174593914689
0.28400946698223273,0.8482630511748975
0.2860095336511217,0.8544678401457038
0.28800960032001066,1.1238860737456537
0.29000966698889963,0.9463302156633884
0.2920097336577886,1.1073306517392103
0.29400980032667756,1.2083749007768383
0.29600986699556653,1.2692333267562839
0.2980099336644555,1.3241456392225717
0.3000100003333444,1.0671421265536543
0.3020100670022334,1.0633347994476383
0.30401013367112234,1.2665727718209447
0.3060102003400113,0.7368527982380952
0.3080102670089003,0.9401820915166478
0.31001033367778924,1.0216584292785214
0.3120104003466782,0.987246224109418
0.3140104670155672,0.8825938281668096
0.31601053368445614,1.1439397905639144
0.3180106003533451,0.8574620494422871
0.3200106670222341,1.2817072263576739
0.32201073369112304,0.897036849399321
0.324010800360012,1.0883917486206827
0.326010867028901,0.9790235331613582
0.3280109336977899,0.7833157789155014
0.33001100036667885,0.8126596212550373
0.3320110670355678,0.8061234558670954
0.3340111337044568,0.9928002596187508
0.33601120037334575,0.9095633979627445
0.3380112670422347,0.6211780476506121
0.3400113337111237,0.7750140860764498
0.34201140038001265,0.6278805484034164
0.3440114670489016,0.808812547350634
0.3460115337177906,0.9118101129656694
0.34801160038667955,0.9669483868300011
0.3500116670555685,0.6413177386167187
0.3520117337244575,0.36052298997416765
0.35401180039334645,0.8804290999774104
0.35601186706223537,0.49099751792950075
0.35801193373112433,0.1327360392684378
0.3600120004000133,0.38916305805714585
0.36201206706890227,0.23860669975448245
0.36401213373779123,0.7998565201709725
0.3660122004066802,0.6090898734150012
0.36801226707556917,0.637448242709203
0.37001233374445813,0.6440184993507017
0.3720124004133471,0.281212086363107
0.37401246708223607,0.2864708151106112
0.37601253375112503,0.36378644693192264
0.378012600420014,0.4967561816844485
0.38001266708890297,0.4452595315095985
0.38201273375779193,0.2750037091533501
0.38401280042668084,0.4006548136476686
0.3860128670955698,0.5053242612518665
0.3880129337644588,0.5932755298748162
0.39001300043334775,-0.07121552514783369
0.3920130671022367,0.12883681252859933
0.3940131337711257,0.22584285602332393
0.39601320044001465,-0.08097652934687691
0.3980132671089036,-0.001872516385796552
0.4000133337777926,0.0038874668477349994
0.40201340044668155,0.30200147325251797
0.4040134671155705,-0.25501693264693537
0.4060135337844595,0.2507882329818933
0.40801360045334845,0.17749684678513983
0.4100136671222374,0.12633002273641553
0.4120137337911264,0.07774225741223664
0.4140138004600153,-0.08401796796272419
0.41601386712890426,0.15157208619062143
0.4180139337977932,-0.03414707284911764
0.4200140004666822,0.04807123863686037
0.42201406713557116,0.012798118359718946
0.4240141338044601,0.08971224537831232
0.4260142004733491,-0.12909050762448587
0.42801426714223806,-0.3091371694320663
0.430014333811127,-0.19629696363542826
0.432014400480016,-0.1937431179652813
0.43401446714890496,-0.47349846130024786
0.4360145338177939,-0.20426099316811736
0.4380146004866829,0.06339701932137104
0.44001466715557186,-0.16151229024944985
0.44201473382446077,-0.5577107386916974
0.44401480049334974,-0.5539320624405213
0.4460148671622387,-0.3612991126407399
0.44801493383112767,-0.14788383163663515
0.45001500050001664,-0.44423990947722786
0.4520150671689056,-0.25598748225561363
0.45401513383779457,-0.2335447823219963
0.45601520050668354,-0.4539758687826851
0.4580152671755725,-0.4170942058169198
0.46001533384446147,-0.5669050028241818
0.46201540051335044,-0.5242829753230798
0.4640154671822394,-0.4391926940037365
0.46601553385112837,-0.3490229715138582
0.46801560052001734,-0.30228960453029335
0.47001566718890625,-0.71377902566891
0.4720157338577952,-0.29852803000052175
0.4740158005266842,-0.333547836972474
0.47601586719557315,-0.5838283858534686
0.4780159338644621,-0.2970493280208152
0.4800160005333511,-0.31244125257734645
0.48201606720224005,-0.6512051601291807
0.484016133871129,-0.5025926764904711
0.486016200540018,-1.0491787079262074
0.48801626720890695,-1.138462676176558
0.4900163338777959,-0.7979443100789091
0.4920164005466849,-0.7677608333300544
0.49401646721557385,-0.7969194230306225
0.4960165338844628,-1.2087703567163044
0.49801660055335173,-1.3153681902776087
0.5000166672222407,-1.110502523827601
0.5020167338911297,-0.8812542046822073
0.5040168005600186,-0.7348362690785026
0.5060168672289076,-0.9779738525694067
0.5080169338977966,-0.8955394492598338
0.5100170005666855,-0.9473558810933492
0.5120170672355745,-0.9943698262410889
0.5140171339044635,-1.4289689043214238
0.5160172005733524,-1.0683778968541136
0.5180172672422414,-0.9354930963155492
0.5200173339111304,-1.4386947113806066
0.5220174005800193,-1.130630427592136
0.5240174672489083,-0.6977238638449921
0.5260175339177973,-1.2490304634868166
0.5280176005866862,-0.9425852136128903
0.5300176672555752,-0.9897839739056223
0.5320177339244642,-0.9778433934962972
0.5340178005933531,-1.7148627284757505
0.5360178672622421,-1.3424244507827152
0.5380179339311311,-1.4619817306707954
0.54001800060002,-1.0741977631975095
0.5420180672689089,-0.8779952161184683
0.5440181339377979,-1.5672988080863037
0.5460182006066868,-1.6247598112727153
0.5480182672755758,-0.9873396962615826
0.5500183339444648,-1.3894281300991522
0.5520184006133537,-1.1108160480207399
0.5540184672822427,-1.0492195487958176
0.5560185339511317,-1.2769056887403687
0.5580186006200206,-1.171284229030522
0.5600186672889096,-1.1260878917160748
0.5620187339577986,-1.6468811116493365
0.5640188006266875,-1.4187487581043285
0.5660188672955765,-1.4978613559014573
0.5680189339644655,-1.4401643688922698
0.5700190006333544,-1.5318973085972267
0.5720190673022434,-1.3213046312268932
0.5740191339711324,-1.5333035482774957
0.5760192006400213,-1.2235465529027372
0.5780192673089103,-1.3883215562396813
0.5800193339777993,-1.351830938996031
0.5820194006466882,-1.243906376231114
0.5840194673155772,-1.3026993721979236
0.5860195339844662,-1.5267787149095662
0.5880196006533551,-1.3368916253411762
0.5900196673222441,-1.5338794277999197
0.5920197339911331,-1.0851282425109126
0.594019800660022,-1.4940431950276811
0.596019867328911,-1.7256189935048314
0.5980199339977998,-1.653951071363046
0.6000200006666888,-1.101995606421758
0.6020200673355778,-1.3463747911791397
0.6040201340044667,-1.3052960929402184
0.6060202006733557,-1.4565948800930426
0.6080202673422447,-1.4980773726707175
0.6100203340111336,-1.701043168704802
0.6120204006800226,-1.2240646673361246
0.6140204673489116,-1.3138255261578897
0.6160205340178005,-1.3261052654353276
0.6180206006866895,-1.3925583394331291
0.6200206673555785,-1.8171219746748943
0.6220207340244674,-1.268584453887553
0.6240208006933564,-1.3462115162925177
0.6260208673622454,-1.276148168666794
0.6280209340311343,-1.5374766955200168
0.6300210007000233,-1.3924186326898291
0.6320210673689123,-1.6162926448455248
0.6340211340378012,-1.061248424102656
0.6360212007066902,-1.9479701976279005
0.6380212673755792,-1.4562907743871203
0.6400213340444681,-1.3480777934407602
0.6420214007133571,-1.3406163078044937
0.6440214673822461,-1.4359238863245987
0.646021534051135,-1.6670791922679724
0.648021600720024,-1.5816658619391155
0.650021667388913,-1.088668125511543
0.652021734057802,-1.4832529172020004
0.6540218007266909,-1.8690118919437686
0.6560218673955798,-1.4517214482464285
0.6580219340644687,-1.8127645044031206
0.6600220007333577,-1.0946211725139272
0.6620220674022467,-1.397502199030616
0.6640221340711356,-1.171740203615837
0.6660222007400246,-1.902114286380407
0.6680222674089136,-1.3861976245933911
0.6700223340778025,-1.7296081173564668
0.6720224007466915,-1.27173339191935
0.6740224674155805,-1.4405923716790419
0.6760225340844694,-1.652891113468184
0.6780226007533584,-1.6855060559321255
0.6800226674222474,-1.1758144180273244
0.6820227340911363,-0.9400619106704249
0.6840228007600253,-1.5218075593300335
0.6860228674289143,-1.2439297559464115
0.6880229340978032,-1.1221570868482558
0.6900230007666922,-1.1532933567319448
0.6920230674355812,-1.3780052943057188
0.6940231341044701,-1.1630961467064664
0.6960232007733591,-1.363521789885883
0.6980232674422481,-1.238914048751784
0.700023334111137,-1.3186425621577118
0.702023400780026,-1.1976595654645559
0.704023467448915,-1.1044196205211172
0.7060235341178039,-1.6840134807130533
0.7080236007866929,-1.3936186020459707
0.7100236674555819,-1.6068027358219994
0.7120237341244707,-1.1402255138455972
0.7140238007933597,-1.1036580789250456
0.7160238674622487,-1.488207027153177
0.7180239341311376,-1.2257844482426457
0.7200240008000266,-1.0561221964903296
0.7220240674689156,-1.1764423853834405
0.7240241341378045,-0.8458357318716989
0.7260242008066935,-1.3611670183847193
0.7280242674755825,-0.9679935108004782
0.7300243341444714,-1.0287847914627424
0.7320244008133604,-0.8859301709677178
0.7340244674822494,-1.0567186260560415
0.7360245341511383,-0.8664788108040605
0.7380246008200273,-0.9367877567235241
0.7400246674889163,-0.9567077236312015
0.7420247341578052,-0.9052596901111866
0.7440248008266942,-0.9699499224887568
0.7460248674955832,-0.6566502133256048
0.7480249341644721,-0.9087840102072534
0.7500250008333611,-0.5842359449532173
0.7520250675022501,-1.1912759624524565
0.754025134171139,-0.793983110711131
0.756025200840028,-0.7673230255032691
0.758025267508917,-0.7399469639853524
0.7600253341778059,-0.782619178273838
0.7620254008466949,-0.10870450269965604
0.7640254675155839,-0.6188087923980057
0.7660255341844728,-0.9872419422070003
0.7680256008533617,-0.9900293849617008
0.7700256675222507,-0.6811414185752726
0.7720257341911396,-0.8762809379752599
0.7740258008600286,-0.742311413384494
0.7760258675289176,-0.9615155443649162
0.7780259341978065,-0.7116790724144344
0.7800260008666955,-0.5814434132433883
0.7820260675355845,-0.5823181403928851
0.7840261342044734,-0.17081687328298317
0.7860262008733624,-0.5412251834649325
0.7880262675422514,-0.6527152925127502
0.7900263342111403,-0.47155641718624913
0.7920264008800293,-0.5366883068002061
0.7940264675489183,-0.5107212435036815
0.7960265342178072,-0.3349019491563588
0.7980266008866962,0.11155739485286142
0.8000266675555852,-0.5360256934255679
0.8020267342244741,-0.35124393854269265
0.8040268008933631,-0.12483719849833427
0.8060268675622521,-0.4709098054414437
0.808026934231141,-0.11129319103147362
0.81002700090003,-0.0005533732027431792
0.812027067568919,-0.13673507829485923
0.8140271342378079,-0.08170652048424398
0.8160272009066969,-0.25950218997239805
0.8180272675755859,-0.08401735852840135
0.8200273342444748,-0.2271139371258734
0.8220274009133638,-0.030525903487630873
0.8240274675822528,-0.42314510463662114
0.8260275342511416,0.20899133467337244
0.8280276009200306,0.20672630726985664
0.8300276675889195,0.013260726452158568
0.8320277342578085,0.09772455717666659
0.8340278009266975,-0.19711645395569916
0.8360278675955864,-0.09998162128059508
0.8380279342644754,0.0008377128210428492
0.8400280009333644,0.21096804362781296
0.8420280676022533,-0.13965736613082994
0.8440281342711423,0.2504500646884288
0.8460282009400313,0.13637592703757367
0.8480282676089202,0.4289752999844354
0.8500283342778092,0.25468142580686526
0.8520284009466982,0.16045014038658112
0.8540284676155872,0.46321509697898766
0.8560285342844761,0.12044554219947032
0.8580286009533651,0.5737765007808053
0.860028667622254,0.30497790239934464
0.862028734291143,0.26307798355557244
0.864028800960032,0.4876044875768286
0.866028867628921,0.6704623594544166
0.8680289342978099,0.3482094370782173
0.8700290009666989,0.20821587439589773
0.8720290676355879,0.3416868944593856
0.8740291343044768,0.8107106244286166
0.8760292009733658,0.6060568212140347
0.8780292676422548,1.065123983779319
0.8800293343111437,0.5929316752706231
0.8820294009800326,0.4336172230525269
0.8840294676489215,0.7324856402933966
0.8860295343178105,0.19041258780319748
0.8880296009866995,0.7926386433817112
0.8900296676555884,0.8875333913781297
0.8920297343244774,0.633218935225168
0.8940298009933664,0.8257029366706812
0.8960298676622553,0.5708357438333657
0.8980299343311443,0.6976770254812937
0.9000300010000333,0.6565945222565432
0.9020300676689222,0.38791237303322695
0.9040301343378112,0.712100956577744
0.9060302010067002,1.155531443759676
0.9080302676755891,0.7679111189810014
0.9100303343444781,0.946989512887686
0.9120304010133671,0.9688088605267011
0.914030467682256,1.1386016884865988
0.916030534351145,0.9743083393269598
0.918030601020034,1.048773327256291
0.9200306676889229,0.7996690052324229
0.9220307343578119,0.7476957314024977
0.9240308010267009,0.8298710927100025
0.9260308676955898,1.413768640376808
0.9280309343644788,1.3779907568195817
0.9300310010333678,0.8622742127373033
0.9320310677022567,1.0128077236580904
0.9340311343711457,1.2923909003784273
0.9360312010400347,0.9807391502244518
0.9380312677089236,1.044381925509766
0.9400313343778125,1.4654109300593896
0.9420314010467015,1.0577192364074133
0.9440314677155904,1.2440514198942945
0.9460315343844794,1.2598736287387897
0.9480316010533684,1.4236018540097566
0.9500316677222573,1.412264974330794
0.9520317343911463,1.12979363637129
0.9540318010600353,1.2401483689427437
0.9560318677289242,1.1321553614836
0.9580319343978132,1.1028569732658926
0.9600320010667022,1.2431029381085827
0.9620320677355911,1.1195751629383361
0.9640321344044801,1.175805649949481
0.9660322010733691,1.2106417043164774
0.968032267742258,1.3565310350669204
0.970032334411147,1.5138068535382847
0.972032401080036,1.3113519688548831
0.9740324677489249,1.134942850492501
0.9760325344178139,1.149519526677875
0.9780326010867029,1.2723181503776357
0.9800326677555918,1.254388382432791
0.9820327344244808,1.3691229411289316
0.9840328010933698,1.2564967993696392
0.9860328677622587,1.6970858406018998
0.9880329344311477,1.1153019780263618
0.9900330011000367,1.3011753625315452
0.9920330677689256,1.5545447856723333
0.9940331344378146,1.2294577174424566
0.9960332011067035,1.097658515441231
0.9980332677755924,1.811570399251225
1.0000333344444814,1.2179655645255458
1.0020334011133705,1.9439737372892851
1.0040334677822593,1.038679342051775
1.0060335344511484,1.3910933022308118
1.0080336011200373,1.553112327534313
1.0100336677889263,1.829695430666487
1.0120337344578152,1.436799947247944
1.0140338011267043,1.4798064542999552
1.0160338677955931,1.6014890021621104
1.0180339344644822,1.8337908923276935
1.020034001133371,1.6916515360886892
1.0220340678022601,1.6736671462689996
1.024034134471149,1.5906721323714923
1.0260342011400378,1.5968625965298509
1.028034267808927,1.2562656682632822
1.0300343344778158,1.7120921960007196
1.0320344011467049,1.6719886289356942
1.0340344678155937,1.472548623392019
1.0360345344844828,1.6362588023011637
1.0380346011533716,1.2418718469973924
1.0400346678222607,1.7934858234058388
1.0420347344911496,1.149708386414103
1.0440348011600387,1.9026328635320935
1.0460348678289275,1.2846386597214656
1.0480349344978166,1.5970049150046426
1.0500350011667055,1.6850357206996793
1.0520350678355945,1.5893109666514456
1.0540351345044834,1.7475018600620515
1.0560352011733725,1.5091189258402373
1.0580352678422613,1.1685380664528726
1.0600353345111504,1.2073259567300567
1.0620354011800393,1.3272408847997976
1.0640354678489283,1.543770183134095
1.0660355345178172,1.6178391078058927
1.0680356011867063,1.1756872791446233
1.0700356678555951,1.81414745012854
1.0720357345244842,1.4934745475358524
1.074035801193373,1.643184263640078
1.0760358678622621,1.5551852208597436
1.078035934531151,1.655941631362349
1.08003600120004,1.4938621997297812
1.082036067868929,1.1187183118689492
1.0840361345378178,1.5939235363790123
1.0860362012067069,1.3520375761919565
1.0880362678755957,1.419420210288334
1.0900363345444848,1.6224625232864271
1.0920364012133736,1.0244353665208958
1.0940364678822627,1.152809759026976
1.0960365345511516,1.2518253352371291
1.0980366012200407,1.5132722027618783
1.1000366678889295,1.360207752420023
1.1020367345578186,1.4325761167602304
1.1040368012267074,1.5038647665502731
1.1060368678955965,1.5372990567847524
1.1080369345644854,0.9815926549662118
1.1100370012333745,1.0081826588121119
1.1120370679022633,1.2860190466511836
1.1140371345711524,1.472736660038608
1.1160372012400412,1.7501323071906194
1.1180372679089303,1.9627103887586563
1.1200373345778192,1.467262547006035
1.1220374012467083,1.3739846638523314
1.124037467915597,1.4237407351216138
1.1260375345844862,0.9968396334266487
1.128037601253375,1.3647708310379891
1.1300376679222641,0.8125493620094828
1.132037734591153,1.329646323291751
1.134037801260042,1.0534803729318445
1.136037867928931,1.014301944764764
1.1380379345978198,1.080409530136339
1.1400380012667088,0.7108763205794784
1.1420380679355977,1.1557743926077422
1.1440381346044868,0.9953634355922879
1.1460382012733756,1.0299281278146626
1.1480382679422647,1.032728154210018
1.1500383346111536,1.1633410431940459
1.1520384012800426,1.1105071351925393
1.1540384679489315,0.7550917168879265
1.1560385346178206,1.0870047781813088
1.1580386012867094,0.9991325836989753
1.1600386679555985,0.9892826263116395
1.1620387346244874,1.0065306669013567
1.1640388012933764,1.0187887117489274
1.1660388679622653,1.024480978245217
1.1680389346311544,1.2183656762877386
1.1700390013000432,0.8227549311034629
1.1720390679689323,0.8255651111056429
1.1740391346378212,0.6332818783993328
1.1760392013067102,0.7346224729009243
1.178039267975599,0.9069528675838805
1.1800393346444882,0.5730909164088118
1.182039401313377,0.828213912605742
1.1840394679822661,0.7960636829860642
1.186039534651155,0.6898950592363542
1.188039601320044,0.800327514592293
1.190039667988933,0.5506703028506197
1.192039734657822,0.9064021424095376
1.1940398013267108,0.4103844953231798
1.1960398679955997,0.7531157313159826
1.1980399346644888,0.2573646532238242
1.2000400013333776,0.5640610889262916
1.2020400680022667,0.8692357025881333
1.2040401346711556,0.7390187840789035
1.2060402013400446,0.4756891979263287
1.2080402680089335,0.421089730757052
1.2100403346778226,0.06266314728291439
1.2120404013467114,0.17571612713183576
1.2140404680156005,0.0038367778493060833
1.2160405346844894,0.7141796409560179
1.2180406013533784,0.09692076238593855
1.2200406680222673,0.2629153682737231
1.2220407346911564,0.3204587870822628
1.2240408013600452,0.6487528129611797
1.2260408680289343,-0.18283305287341917
1.2280409346978232,0.18787178018896333
1.2300410013667122,0.2867348057832979
1.232041068035601,0.07471115223938818
1.2340411347044902,0.13161376353071158
1.236041201373379,0.4462384634966399
1.238041268042268,0.0923196442847187
1.240041334711157,-0.09167131609626558
1.242041401380046,0.31063419828580185
1.244041468048935,0.049304658613414376
1.246041534717824,-0.3387734323924743
1.2480416013867128,-0.23196728396250677
1.250041668055602,0.15784644443218088
1.2520417347244908,0.45968519689232257
1.2540418013933796,0.04002273946620248
1.2560418680622687,-0.24737092861874585
1.2580419347311576,0.2844929482376216
1.2600420014000466,-0.3670681758384064
1.2620420680689355,0.015084366781405456
1.2640421347378246,-0.18701168090546355
1.2660422014067134,0.12710697506223592
1.2680422680756025,-0.03144358289630414
1.2700423347444914,-0.37181638880969214
1.2720424014133804,-0.40233591898234056
1.2740424680822693,-0.15864929671010836
1.2760425347511584,0.016186661184911355
1.2780426014200472,-0.4609262433230734
1.2800426680889363,-0.6005279225536786
1.2820427347578252,-0.2246823818699693
1.2840428014267142,-0.5931165871247228
1.286042868095603,-0.2361712348256965
1.2880429347644922,-0.4145745118983783
1.290043001433381,-0.28162774632171195
1.29204306810227,-0.562624322984278
1.294043134771159,-0.5424416914791578
1.296043201440048,-0.6633998467123982
1.2980432681089369,-0.5554718287034253
1.300043334777826,-0.6415774463655631
1.3020434014467148,-0.8503117773400297
1.304043468115604,-0.29233577734200644
1.3060435347844928,-0.4428421988570077
1.3080436014533818,-0.6749819167289697
1.3100436681222707,-0.5893583539909135
1.3120437347911595,-0.5097712669089545
1.3140438014600486,-0.8280137512119092
1.3160438681289375,-0.578502402495854
1.3180439347978266,-0.6571061291762724
1.3200440014667154,-0.7191806223144068
1.3220440681356045,-0.7034326523172268
1.3240441348044933,-0.6349480645006843
1.3260442014733824,-0.9932767943788787
1.3280442681422713,-1.0162348897608895
1.3300443348111604,-0.8143870427049387
1.3320444014800492,-0.8224420823411563
1.3340444681489383,-0.6193704682406602
1.3360445348178271,-1.2391348295017277
1.3380446014867162,-0.7518491458397618
1.340044668155605,-0.7803597602975467
1.3420447348244942,-1.3026340543194679
1.344044801493383,-0.8290600021014225
1.346044868162272,-0.7710982591864919
1.348044934831161,-0.9424191603435125
1.35004500150005,-1.0408215990983
1.3520450681689389,-1.133009739485157
1.354045134837828,-1.1510717610461563
1.3560452015067168,-1.0571050236137494
1.358045268175606,-1.0488215529619482
1.3600453348444947,-1.1208105127709
1.3620454015133838,-1.3215248674194342
1.3640454681822727,-1.2306041629988118
1.3660455348511615,-1.5946314442212002
1.3680456015200506,-0.9026795060027464
1.3700456681889395,-0.9791990801182348
1.3720457348578285,-1.0892821065916305
1.3740458015267174,-1.156107843602424
1.3760458681956065,-1.3969772968838012
1.3780459348644953,-1.4789270943764683
1.3800460015333844,-1.5287289055315274
1.3820460682022733,-1.3717879394157135
1.3840461348711623,-1.1471330719274433
1.3860462015400512,-1.3741015642373686
1.3880462682089403,-1.3560490592532537
1.3900463348778291,-0.942427285968153
1.3920464015467182,-1.284949825285181
1.394046468215607,-1.3698962505934458
1.3960465348844961,-1.4504684499469442
1.398046601553385,-1.2288852241141341
1.400046668222274,-1.3893646937768267
1.402046734891163,-1.3494207029901153
1.404046801560052,-1.2444684607629886
1.4060468682289409,-1.2516042675108612
1.40804693489783,-1.1797602435052028
1.4100470015667188,-1.520945143597678
1.4120470682356079,-1.0504770180730088
1.4140471349044967,-1.8035380743741312
1.4160472015733858,-1.0094037765193913
1.4180472682422747,-1.4038158758747337
1.4200473349111637,-1.5234428818274828
1.4220474015800526,-1.2527963887953952
1.4240474682489415,-1.6590740190079845
1.4260475349178305,-1.5905777206324418
1.4280476015867194,-1.511698331705962
1.4300476682556085,-1.5506394903097558
1.4320477349244973,-1.4151388875508726
1.4340478015933864,-1.7250556306175648
1.4360478682622753,-1.5778914908539314
1.4380479349311643,-1.3429230694406933
1.4400480016000532,-1.2214211978270761
1.4420480682689423,-1.5559187660700777
1.4440481349378311,-1.16273999243531
1.4460482016067202,-1.1866429760388344
1.448048268275609,-1.315111398201549
1.4500483349444981,-1.565664454647803
1.452048401613387,-0.9803051532633876
1.454048468282276,-1.5114263067221727
1.456048534951165,-1.35498798068117
1.458048601620054,-1.3495674546219398
1.4600486682889429,-1.2833272947234247
1.462048734957832,-1.3773599955629134
1.4640488016267208,-1.4856873559472221
1.4660488682956099,-1.3999413005871464
1.4680489349644987,-1.8906343190366663
1.4700490016333878,-1.5720101437101868
1.4720490683022767,-1.5001145336456858
1.4740491349711657,-1.7505175757018805
1.4760492016400546,-1.2489074308539405
1.4780492683089437,-1.2798817715622173
1.4800493349778325,-1.380832361819134
1.4820494016467214,-1.3127216466691476
1.4840494683156105,-1.4303101214727565
1.4860495349844993,-1.4312884464821194
1.4880496016533884,-2.142140076171488
1.4900496683222773,-1.5216886060024153
1.4920497349911663,-1.6067199481343841
1.4940498016600552,-1.2898610723299664
1.4960498683289443,-1.3814646270488413
1.4980499349978331,-1.5304635139703369
1.5000500016667222,-1.590845099800621
1.502050068335611,-1.3672839420673808
1.5040501350045001,-1.4975310702808295
1.506050201673389,-1.3905287891255722
1.508050268342278,-1.0041975352926027
1.510050335011167,-1.3787608895932741
1.512050401680056,-1.5352310760734014
1.5140504683489449,-1.4253259311153308
1.516050535017834,-1.383577573042586
1.5180506016867228,-1.0382269288225499
1.5200506683556119,-1.384056119953677
1.5220507350245007,-1.5674128647662817
1.5240508016933898,-1.5089274932722343
1.5260508683622787,-1.308450697761757
1.5280509350311677,-1.2899075047907713
1.5300510017000566,-1.541072924653153
1.5320510683689457,-1.3486747770919374
1.5340511350378345,-0.9009707041623025
1.5360512017067234,-1.1776712722328753
1.5380512683756125,-1.3813007647026445
1.5400513350445013,-1.5575804785227392
1.5420514017133904,-1.3914264220194383
1.5440514683822792,-0.9773339213058836
1.5460515350511683,-1.4255351818661883
1.5480516017200572,-0.8722797910463648
1.5500516683889463,-0.9886980543858015
1.5520517350578351,-1.2921539567020905
1.5540518017267242,-0.9160430663631702
1.556051868395613,-1.397444707372877
1.5580519350645021,-1.146124655704906
1.560052001733391,-1.1271182181734274
1.56205206840228,-1.1359132656304516
1.564052135071169,-0.9873433953081558
1.566052201740058,-1.242924440673476
1.5680522684089468,-1.0124127720090215
1.570052335077836,-1.0057985682510633
1.5720524017467248,-0.7549254237054559
1.5740524684156139,-1.1905148906388026
1.5760525350845027,-1.418318909631716
1.5780526017533918,-0.9423515714972314
1.5800526684222806,-1.1100789984871622
1.5820527350911697,-0.8399813883937636
1.5840528017600586,-1.3012089167322074
1.5860528684289477,-0.7306753408250284
1.5880529350978365,-0.8621050461237012
1.5900530017667256,-0.7188989574287376
1.5920530684356144,-0.905759246024523
1.5940531351045033,-0.9376996358677111
1.5960532017733924,-0.7461741773039012
1.5980532684422812,-0.46004998490502863
1.6000533351111703,-0.8071514140567666
1.6020534017800592,-0.3784603540859087
1.6040534684489482,-0.8890863224029378
1.606053535117837,-0.6967525968914573
1.6080536017867262,-0.7485170206071095
1.610053668455615,-0.6928848035525607
1.6120537351245041,-0.7049127060613674
1.614053801793393,-0.5138746381752338
1.616053868462282,-0.8552009869664854
1.618053935131171,-0.5934209098280232
1.62005400180006,-0.19449928707731323
1.6220540684689488,-0.5831953385613443
1.624054135137838,-0.6109922786004918
1.6260542018067268,-0.770710878077026
1.6280542684756159,-0.6952062737097464
1.6300543351445047,-0.3387303839480032
1.6320544018133938,-0.09548583317458875
1.6340544684822826,-0.2818115900520215
1.6360545351511717,-0.12927828721650664
1.6380546018200606,-0.7342815425829998
1.6400546684889497,-0.17626771641249062
1.6420547351578385,-0.23885091871372988
1.6440548018267276,-0.2328521766832193
1.6460548684956164,-0.5124378252986147
1.6480549351645055,0.05668865546243482
1.6500550018333944,0.0219230547356786
1.6520550685022832,-0.28123946762680596
1.6540551351711723,-0.4278961408129315
1.6560552018400612,-0.16853638723508005
1.6580552685089502,-0.25448743558644693
1.660055335177839,-0.2447011004945036
1.6620554018467282,-0.04224185075157558
1.664055468515617,0.2301035371532796
1.666055535184506,0.1420834509470958
1.668055601853395,0.3497366626363882
1.670055668522284,0.2639034045280941
1.672055735191173,0.2786226880772079
1.674055801860062,0.027745725303646343
1.6760558685289508,0.5102664565379321
1.67805593519784,0.34575358411471113
1.6800560018667288,0.49659485697253714
1.6820560685356178,0.09062121479316028
1.6840561352045067,0.007193230939903206
1.6860562018733958,0.2485437394014672
1.6880562685422846,0.06627605399816985
1.6900563352111737,0.21150291371927987
1.6920564018800626,0.5682339168648538
1.6940564685489516,0.09183402595354476
1.6960565352178405,-0.04130414501687946
1.6980566018867296,0.47326648512784447
1.7000566685556184,0.42641619349075366
1.7020567352245075,0.07512688844776438
1.7040568018933964,0.38145336831772275
1.7060568685622854,0.17077535606819155
1.7080569352311743,0.49127966413532653
1.7100570019000632,0.4479330854259141
1.7120570685689522,0.7377552008836448
1.714057135237841,0.4741089204201224
1.7160572019067302,0.6267664924136113
1.718057268575619,0.38698346119769333
1.720057335244508,0.6236257933702817
1.722057401913397,0.8134852012835692
1.724057468582286,0.6878211474645287
1.726057535251175,0.8428800859847414
1.728057601920064,0.9471105840395821
1.7300576685889528,0.5040391459951604
1.732057735257842,0.6982479228653451
1.7340578019267308,1.1294834706320342
1.7360578685956198,0.7291637502523649
1.7380579352645087,0.5590016937685398
1.7400580019333978,0.35677432998614345
1.7420580686022866,0.8530223725853324
1.7440581352711757,0.62614781649993
1.7460582019400646,0.7075099846521191
1.7480582686089536,0.6611687251314028
1.7500583352778425,1.003990890556087
1.7520584019467316,0.8570155543138656
1.7540584686156204,1.1019574823633707
1.7560585352845095,0.8260606916119124
1.7580586019533984,1.2641246653480664
1.7600586686222874,0.7556729212691982
1.7620587352911763,0.7817069095952855
1.7640588019600651,1.1471660926878458
1.7660588686289542,1.0670669748868682
1.768058935297843,0.861889221255373
1.7700590019667322,1.0562257465112852
1.772059068635621,1.1147070244638244
1.77405913530451,1.0666207750533256
1.776059201973399,0.7007881300068453
1.778059268642288,1.1805328279384897
1.7800593353111769,0.901715337368028
1.782059401980066,1.106988551749792
1.7840594686489548,0.9785755502914021
1.786059535317844,1.0663819697653003
1.7880596019867327,0.7795387740940498
1.7900596686556218,1.0251831267729568
1.7920597353245107,0.8009097313266449
1.7940598019933998,1.1315915388301936
1.7960598686622886,1.309180053741067
1.7980599353311777,1.182081087141644
1.8000600020000666,1.2169017370986595
1.8020600686689556,1.5075406643347224
1.8040601353378445,1.4009660377973843
1.8060602020067336,1.092650126164967
1.8080602686756224,1.326767963682615
1.8100603353445115,1.3077946195965124
1.8120604020134004,1.0688829158571664
1.8140604686822894,1.2647337841183879
1.8160605353511783,1.4332342867358572
1.8180606020200674,1.6149351609310145
1.8200606686889562,1.639107858001019
1.822060735357845,1.192092739444938
1.8240608020267342,1.3242678211045613
1.826060868695623,1.0893806889964457
1.828060935364512,1.417360163280121
1.830061002033401,1.632376216375966
1.83206106870229,1.458444815419816
1.8340611353711789,1.5788745841174638
1.836061202040068,1.343557640482339
1.8380612687089568,1.1633633695340038
1.8400613353778459,1.3984862929982724
1.8420614020467347,1.5324952961873033
1.8440614687156238,1.4501542729801316
1.8460615353845127,1.7430588200030297
1.8480616020534018,1.40852667090001
1.8500616687222906,1.2336239581636042
1.8520617353911797,1.9010592199286656
1.8540618020600685,1.1703778785926253
1.8560618687289576,1.3558531697258955
1.8580619353978465,1.0601511159426458
1.8600620020667356,1.399151942495917
1.8620620687356244,1.4360252206027302
1.8640621354045135,1.5479380052476115
1.8660622020734023,1.2469550122874373
1.8680622687422914,1.2590131208879702
1.8700623354111803,1.4236924040625538
1.8720624020800694,1.5651714462462956
1.8740624687489582,1.4086747664579133
1.8760625354178473,1.45270402285796
1.8780626020867361,1.3581275547620448
1.880062668755625,1.3216903284954222
1.882062735424514,1.416356548702988
1.884062802093403,1.5462803093347477
1.886062868762292,1.7800372548928354
1.8880629354311809,1.2430428169617587
1.89006300210007,1.4843379546263311
1.8920630687689588,1.5766347003528791
1.8940631354378479,1.6203827522496235
1.8960632021067367,1.5702540081549166
1.8980632687756258,1.5525702958115246
1.9000633354445147,1.300515380614414
1.9020634021134037,1.436291076699812
1.9040634687822926,1.2608054745306452
1.9060635354511817,1.6287993535320753
1.9080636021200705,1.345970800808904
1.9100636687889596,1.3719635828242391
1.9120637354578485,1.2249247544903867
1.9140638021267375,1.7176624483488812
1.9160638687956264,1.2661683044645649
1.9180639354645155,1.4649602388618848
1.9200640021334043,1.2640190365745716
1.9220640688022934,1.4055713124244118
1.9240641354711823,1.4062219709425046
1.9260642021400713,1.1400457222850737
1.9280642688089602,1.346855736373265
1.9300643354778493,1.432940392219829
1.9320644021467381,1.4326479559124932
1.9340644688156272,1.2004594054155286
1.936064535484516,1.2398099715748667
1.938064602153405,1.232450341930756
1.940064668822294,1.775907118871641
1.9420647354911829,1.3745394515765956
1.944064802160072,1.6291008156311748
1.9460648688289608,1.2320725505092238
1.9480649354978499,1.4034031422493425
1.9500650021667387,1.317500896117096
1.9520650688356278,1.1647206462454958
1.9540651355045167,1.315802551731193
1.9560652021734057,1.568749217765073
1.9580652688422946,1.2181855014248633
1.9600653355111837,1.2230258166814718
1.9620654021800725,0.9848245849907122
1.9640654688489616,1.3631566859838364
1.9660655355178505,1.1830267315349683
1.9680656021867395,1.1414309308903532
1.9700656688556284,0.9937169890894815
1.9720657355245175,0.90458524759069
1.9740658021934063,0.9617175044048221
1.9760658688622954,1.4140339780427564
1.9780659355311843,1.075328702200129
1.9800660022000733,0.7061561359517687
1.9820660688689622,0.8541001496384076
1.9840661355378513,1.189967280886962
1.9860662022067401,0.9730109099912165
1.9880662688756292,1.1513265652965388
1.990066335544518,1.2244332979351902
1.992066402213407,1.039566991895622
1.994066468882296,0.7901495675392435
1.9960665355511849,0.8634362626269846
1.998066602220074,0.8074328111735314
2.000066668888963,0.8848815711484915
2.0020667355578516,0.8084971363793068
2.004066802226741,1.1244386096591157
2.00606686889563,1.0934915562909824
2.0080669355645187,1.1422230183496753
2.0100670022334075,0.6869804071504189
2.012067068902297,0.6633573307527928
2.0140671355711857,0.7679364493759548
2.0160672022400745,0.8487299662205682
2.0180672689089634,0.9445249439261455
2.0200673355778527,0.7168980411977431
2.0220674022467415,0.552898193557327
2.0240674689156304,0.6555503625032099
2.0260675355845192,0.5657509484803213
2.0280676022534085,0.7937924656448041
2.0300676689222974,0.5058214346726925
2.0320677355911863,0.7010542391619272
2.034067802260075,0.6974383588363778
2.0360678689289644,0.43736029190706416
2.0380679355978533,0.7058682962083561
2.040068002266742,0.529860125927392
2.042068068935631,0.5792937431034537
2.0440681356045203,0.5071952454817784
2.046068202273409,0.45563903857006793
2.048068268942298,0.43676545732401306
2.050068335611187,0.08720697226718716
2.0520684022800757,0.30457385776101153
2.054068468948965,0.278923868799769
2.056068535617854,0.2764160492816505
2.0580686022867427,0.2914171528491038
2.0600686689556316,0.03450501733225689
2.062068735624521,0.5006225774612839
2.0640688022934097,0.23776323569254357
2.0660688689622986,0.45332682043278255
2.0680689356311874,-0.10599934640661726
2.0700690023000767,0.566337573818136
2.0720690689689656,0.2365461238363873
2.0740691356378544,0.27019358506526403
2.0760692023067433,0.3938787765066848
2.0780692689756326,-0.04989509486550249
2.0800693356445215,0.029115026849718076
2.0820694023134103,0.15307609324243132
2.084069468982299,0.07269500864468799
2.0860695356511885,-0.03053906903031398
2.0880696023200773,-0.2981994880458432
2.090069668988966,0.08263386567762837
2.092069735657855,-0.06678702758542213
2.0940698023267443,0.007684709965705472
2.096069868995633,-0.05840545928760267
2.098069935664522,-0.28578676785282725
2.100070002333411,-0.3207245270803647
2.1020700690023,-0.29192905904587163
2.104070135671189,-0.2804945144030628
2.106070202340078,0.19494946993110235
2.1080702690089668,-0.43817872080886966
2.1100703356778556,-0.08102050117305298
2.112070402346745,-0.34209394202563587
2.114070469015634,-0.5297128924352157
2.1160705356845226,-0.5708575169762682
2.1180706023534115,-0.37068857310371783
2.120070669022301,-0.15718386481269442
2.1220707356911896,-0.6892125165146554
2.1240708023600785,-0.32897648702461646
2.1260708690289674,-0.7912996113100198
2.1280709356978567,-0.5143780173908424
2.1300710023667455,-0.5314036097637554
2.1320710690356344,-0.32080241073240867
2.1340711357045232,-0.6119631254653377
2.1360712023734125,-0.7488424241332757
2.1380712690423014,-0.5002424953704478
2.1400713357111902,-0.6795009561469962
2.142071402380079,-0.8645364335032523
2.1440714690489684,-0.7014830014778061
2.1460715357178572,-0.7064556908117328
2.148071602386746,-0.6803833060334565
2.150071669055635,-0.6565182608378293
2.1520717357245243,-0.7476926808337686
2.154071802393413,-0.8795940541777579
2.156071869062302,-0.7077049356016972
2.158071935731191,-0.7220868404266048
2.16007200240008,-0.7156015319446576
2.162072069068969,-0.45122773135416644
2.164072135737858,-1.333867682312849
2.1660722024067467,-0.7682312590001643
2.1680722690756355,-0.9418000582212053
2.170072335744525,-1.1893537962980143
2.1720724024134137,-0.8265267154968583
2.1740724690823026,-1.043611475167421
2.1760725357511914,-1.227459054417703
2.1780726024200807,-0.7450366952768296
2.1800726690889696,-0.896895684098503
2.1820727357578584,-1.2051234426920736
2.1840728024267473,-1.1996671312476315
2.1860728690956366,-1.0497488575307687
2.1880729357645254,-1.1203699821557913
2.1900730024334143,-0.9945695014928666
2.192073069102303,-1.2463245067903046
2.1940731357711925,-1.047770104391319
2.1960732024400813,-1.0904905450498328
2.19807326910897,-1.0035134701538304
2.200073335777859,-1.379880649917442
2.2020734024467483,-0.9013240691827369
2.204073469115637,-1.105034654152713
2.206073535784526,-1.2176301194086971
2.208073602453415,-1.2317086455253443
2.210073669122304,-1.1978495482482883
2.212073735791193,-1.3801720503314134
2.214073802460082,-1.2971914441766896
2.2160738691289708,-1.2707169010757948
2.21807393579786,-1.470198675289691
2.220074002466749,-1.1250052678688578
2.2220740691356378,-1.2637331158471785
2.2240741358045266,-1.3352051034390875
2.2260742024734155,-1.052208091133617
2.2280742691423048,-1.594949672860271
2.2300743358111936,-1.3082520498670969
2.2320744024800825,-1.305208380281573
2.2340744691489713,-1.3333174666712322
2.2360745358178606,-1.267742687132931
2.2380746024867495,-1.2389977455401926
2.2400746691556384,-1.1884467257647433
2.242074735824527,-1.486074296860599
2.2440748024934165,-1.000196664619963
2.2460748691623054,-0.9187354154325873
2.248074935831194,-1.788263339128914
2.250075002500083,-1.4874088447649942
2.2520750691689724,-1.7658018027376963
2.2540751358378612,-1.1319061005379287
2.25607520250675,-1.339014297274376
2.258075269175639,-1.3547412162736052
2.2600753358445282,-1.0859859972848398
2.262075402513417,-1.6562525788685825
2.264075469182306,-1.6325531764979793
2.266075535851195,-1.153743139339583
2.268075602520084,-1.2334613544870576
2.270075669188973,-1.5721485823680448
2.272075735857862,-1.7745961585696295
2.2740758025267507,-1.643425003266669
2.2760758691956395,-1.51003335626363
2.278075935864529,-1.24391593832591
2.2800760025334177,-1.1550733894432827
2.2820760692023065,-1.3206362734852528
2.2840761358711954,-1.0977372043142732
2.2860762025400847,-1.4386415817787392
2.2880762692089736,-1.4213587527702924
2.2900763358778624,-1.356622692472294
2.2920764025467513,-1.709057908895249
2.2940764692156406,-1.7229223161789986
2.2960765358845294,-1.4259771143896578
2.2980766025534183,-1.2619412943976336
2.300076669222307,-1.501178393364502
2.3020767358911964,-1.3637913729965374
2.3040768025600853,-1.3959997580272805
2.306076869228974,-1.9341396856060933
2.308076935897863,-1.4618974594763727
2.3100770025667523,-1.31917898136027
2.312077069235641,-1.260377240602816
2.31407713590453,-1.324265825272481
2.316077202573419,-1.2761649383273626
2.318077269242308,-1.433632551106637
2.320077335911197,-1.1945168325617928
2.322077402580086,-1.254598257208784
2.3240774692489747,-1.3815426229586099
2.326077535917864,-1.5044501901716136
2.328077602586753,-1.513088280627555
2.3300776692556417,-1.7337026666547677
2.3320777359245306,-1.4166152614333096
2.3340778025934195,-1.3806924863777408
2.3360778692623088,-1.1393479437349647
2.3380779359311976,-1.6045825669029408
2.3400780026000865,-1.4984517471304029
2.3420780692689753,-1.2441269091623692
2.3440781359378646,-1.0928158852827976
2.3460782026067535,-1.8313722672643995
2.3480782692756423,-1.2181962517521225
2.350078335944531,-1.3927534717182346
2.3520784026134205,-1.1099603845113382
2.3540784692823093,-1.5915059585772615
2.356078535951198,-1.4762219520360753
2.358078602620087,-1.194925967447113
2.3600786692889764,-1.4298445927451642
2.362078735957865,-1.349341024120567
2.364078802626754,-1.2242243287476366
2.366078869295643,-1.043654238574191
2.3680789359645322,-1.6139667900075194
2.370079002633421,-1.3270539835916193
2.37207906930231,-1.2402872891467844
2.374079135971199,-1.3319592221444447
2.376079202640088,-1.3292006994627075
2.378079269308977,-0.945672317695132
2.380079335977866,-1.2228474016969384
2.3820794026467547,-1.0986130569395682
2.384079469315644,-1.1338674146519248
2.386079535984533,-1.102498483906041
2.3880796026534217,-1.1069143461547153
2.3900796693223105,-0.9034926094992791
2.3920797359911994,-1.2246280063161057
2.3940798026600887,-1.1328558024518578
2.3960798693289775,-1.4805007264439192
2.3980799359978664,-1.539250916341688
2.4000800026667553,-1.1336921265784197
2.4020800693356446,-1.3349764977038816
2.4040801360045334,-1.0337460052505067
2.4060802026734223,-0.9528392079792255
2.408080269342311,-0.8896691510978647
2.4100803360112004,-0.9674307466082699
2.4120804026800893,-0.8612578437623793
2.414080469348978,-1.1511099147196537
2.416080536017867,-0.9202316585852507
2.4180806026867563,-0.97983350259171
2.420080669355645,-0.9596028103704987
2.422080736024534,-0.813460561631518
2.424080802693423,-0.5513396944888964
2.426080869362312,-0.7717701125973184
2.428080936031201,-0.9071072710178036
2.43008100270009,-0.8118865258605523
2.4320810693689787,-1.012464416141685
2.434081136037868,-0.8681795462156148
2.436081202706757,-0.9106741051790188
2.4380812693756457,-0.7739226519449413
2.4400813360445346,-0.39102940018029414
2.442081402713424,-0.38416466193897764
2.4440814693823127,-0.47709248498805035
2.4460815360512016,-0.39377617242164253
2.4480816027200905,-0.3844778453570696
2.4500816693889793,-0.8221801529306594
2.4520817360578686,-0.4404299146562047
2.4540818027267575,-0.5247541792937332
2.4560818693956463,-0.3295472322231067
2.458081936064535,-0.367153430761716
2.4600820027334245,0.07480517597878739
2.4620820694023133,-0.7286265065386965
2.464082136071202,-0.3309244906597067
2.466082202740091,-0.4326500792661908
2.4680822694089803,-0.40570694826809944
2.470082336077869,-0.32922148760467396
2.472082402746758,-0.013964424276573406
2.474082469415647,-0.1179846985096884
2.476082536084536,-0.8297204449943858
2.478082602753425,-0.46678241405091764
2.480082669422314,-0.004859124371604462
2.482082736091203,-0.10668920463277164
2.484082802760092,-0.2534893980906443
2.486082869428981,-0.6334576701556252
2.48808293609787,-0.4039458900728143
2.4900830027667586,-0.03379801175050061
2.492083069435648,0.022744777685312578
2.494083136104537,-0.3035546537504486
2.4960832027734257,-0.2810109033540772
2.4980832694423145,-0.11396079036726654
2.500083336111204,-0.04609399506228989
2.5020834027800927,0.14414439900151582
2.5040834694489815,-0.09145418238921582
2.5060835361178704,0.03990252657011289
2.5080836027867592,-0.12336344199135202
2.5100836694556485,-0.13884540291911535
2.5120837361245374,0.31411314436728177
2.5140838027934262,-0.05371994893498114
2.516083869462315,0.3442090491552796
2.5180839361312044,-0.020601406580683962
2.5200840028000933,0.2856331584319442
2.522084069468982,0.04242572112947865
2.524084136137871,-0.12881886316114588
2.5260842028067603,0.23063229810489086
2.528084269475649,0.3098658210848435
2.530084336144538,0.2878222373332774
2.532084402813427,0.24434619423249382
2.534084469482316,0.6268109582906749
2.536084536151205,0.46432182691148194
2.538084602820094,0.17808428996440895
2.5400846694889827,0.6484331226628082
2.542084736157872,0.6215162048586194
2.544084802826761,0.6801694915430658
2.5460848694956497,0.4321619796889453
2.5480849361645386,0.35767053830583995
2.550085002833428,0.545566529358963
2.5520850695023167,0.5416614276668803
2.5540851361712056,0.7153673559183135
2.5560852028400944,0.5702805191140657
2.5580852695089837,0.653965012078464
2.5600853361778726,0.6520605757708225
2.5620854028467615,0.22327342579643283
2.5640854695156503,0.6600713370029243
2.566085536184539,0.3506119997953698
2.5680856028534285,0.6297830202899818
2.5700856695223173,0.41188224777023213
2.572085736191206,0.7309209135109236
2.574085802860095,1.0017743369306882
2.5760858695289843,0.42963452716815653
2.578085936197873,0.8532891907509936
2.580086002866762,0.9518771221525484
2.582086069535651,0.7070157089349006
2.58408613620454,0.8782142535425919
2.586086202873429,0.702569498427033
2.588086269542318,1.1155977923758202
2.5900863362112068,0.7622927584372665
2.592086402880096,1.1252566735015015
2.594086469548985,0.9687150299350883
2.5960865362178738,1.1092226875095903
2.5980866028867626,0.6877788593935343
2.600086669555652,0.8037914536246777
2.602086736224541,0.9771475957306712
2.6040868028934296,1.4807368397979541
2.6060868695623185,0.8294749822857435
2.608086936231208,0.7840867645302818
2.6100870029000967,1.188442788438654
2.6120870695689855,1.1152887198902983
2.6140871362378744,0.8684806378402827
2.6160872029067637,1.4567267326104
2.6180872695756525,1.3817689034532052
2.6200873362445414,1.2438732860144848
2.6220874029134302,1.2004213079724126
2.624087469582319,1.1562647771559984
2.6260875362512084,1.9012304961717152
2.6280876029200972,1.139315485086028
2.630087669588986,1.0484229594365955
2.632087736257875,1.0507796628364408
2.6340878029267643,1.345108799075938
2.636087869595653,1.3759110009619004
2.638087936264542,1.694229680755545
2.640088002933431,1.4803301542483935
2.64208806960232,1.1326887340036917
2.644088136271209,1.2849133645380872
2.646088202940098,1.2917195107766253
2.6480882696089867,1.312945047756811
2.650088336277876,1.5141163518398335
2.652088402946765,1.26280622354564
2.6540884696156537,1.4636912426405817
2.6560885362845426,1.338523789934195
2.658088602953432,1.2240538480759646
2.6600886696223207,1.2360679654383842
2.6620887362912096,1.1964998998214045
2.6640888029600984,1.3946941001212771
2.6660888696289877,1.6161189930395536
2.6680889362978766,1.2203029623993928
2.6700890029667654,1.2166697321483695
2.6720890696356543,1.1967532175084625
2.674089136304543,0.9565646099576117
2.6760892029734324,1.4393611600409126
2.6780892696423213,1.1179432833274559
2.68008933631121,1.6668219514955156
2.682089402980099,1.371302900540706
2.6840894696489883,1.248408825821334
2.686089536317877,1.3502444339598465
2.688089602986766,1.0775554040366302
2.690089669655655,1.397732608964021
2.692089736324544,1.727805650005533
2.694089802993433,1.4575451647836282
2.696089869662322,1.3445078179089573
2.6980899363312107,1.2549344695364688
2.7000900030001,1.4926950600146702
2.702090069668989,1.686256608281372
2.7040901363378778,1.4210341278141276
2.7060902030067666,1.4448882598971398
2.708090269675656,1.4720436143278797
2.7100903363445448,1.9251243360858967
2.7120904030134336,1.587896901519177
2.7140904696823225,1.5306010802168886
2.716090536351212,1.7036119954694962
2.7180906030201006,1.7131006051970983
2.7200906696889895,1.5484178249733407
2.7220907363578783,1.4869333708270802
2.7240908030267676,1.5783155194157097
2.7260908696956565,1.3072546657256239
2.7280909363645454,1.1767176083635245
2.730091003033434,1.482154857898115
2.732091069702323,1.541943974201445
2.7340911363712124,1.5848655779036986
2.7360912030401012,1.5372048220418648
2.73809126970899,1.7165034506577452
2.740091336377879,1.6402065203522012
2.7420914030467682,1.5795811310853778
2.744091469715657,1.3445264162068924
2.746091536384546,1.605766857974111
2.748091603053435,1.7189465326311306
2.750091669722324,1.6032209851040022
2.752091736391213,1.5926933213268402
2.754091803060102,1.4116409281134261
2.7560918697289907,1.468121099573132
2.75809193639788,1.1919080987865087
2.760092003066769,1.5721164848333535
2.7620920697356577,1.3692073450134212
2.7640921364045465,1.4443825160899457
2.766092203073436,1.3909311828167636
2.7680922697423247,1.4841892520371067
2.7700923364112136,1.2418546392656626
2.7720924030801024,1.5210674309241003
2.7740924697489917,0.9493741840678729
2.7760925364178806,1.4775892591675297
2.7780926030867694,1.4756171139575953
2.7800926697556583,0.8064749332323683
2.7820927364245476,1.4606911471038546
2.7840928030934364,1.5569183896821028
2.7860928697623253,1.0437518034433118
2.788092936431214,1.081184445910058
2.790093003100103,1.6221007308991435
2.7920930697689923,1.1051370601883683
2.794093136437881,1.0579055276057097
2.79609320310677,1.2233832802098987
2.798093269775659,1.2628615184919145
2.800093336444548,0.9263328517774115
2.802093403113437,0.8493271152854234
2.804093469782326,0.726442537210823
2.8060935364512147,1.1301488035710305
2.808093603120104,1.2517527921976588
2.810093669788993,0.9492264835676582
2.8120937364578817,0.9543436049639016
2.8140938031267706,1.3373430510709021
2.81609386979566,0.9796346171427885
2.8180939364645488,0.9752556561676888
2.8200940031334376,0.9698181375682278
2.8220940698023265,0.9520802986926746
2.8240941364712158,0.7081518100514108
2.8260942031401046,0.9960637109149761
2.8280942698089935,1.1976282628401445
2.8300943364778823,0.9971079716728712
2.8320944031467716,0.5479333056082432
2.8340944698156605,0.7306457078650621
2.8360945364845493,0.6921695744385645
2.838094603153438,1.0107816842093325
2.8400946698223275,0.9208801344422944
2.8420947364912164,1.0227368649191804
2.844094803160105,0.8474593215514923
2.846094869828994,0.9648076747039389
2.848094936497883,0.8391370417858779
2.8500950031667722,1.0783094776400037
2.852095069835661,1.1992337974754712
2.85409513650455,0.5217506972940205
2.856095203173439,0.9152622129497481
2.858095269842328,0.7379385277940181
2.860095336511217,1.0688716085268444
2.862095403180106,0.4102803736385596
2.8640954698489947,0.5285044816680471
2.866095536517884,0.803656319063659
2.868095603186773,0.452325130218144
2.8700956698556617,0.14431296174318392
2.8720957365245505,0.4262950940343145
2.87409580319344,0.38655298580699593
2.8760958698623287,0.29508154724529245
2.8780959365312175,0.511157710632034
2.8800960032001064,0.4545503656859655
2.8820960698689957,0.295723851746296
2.8840961365378845,0.32670104655715315
2.8860962032067734,0.4085140138172155
2.8880962698756623,0.26051692632410095
2.8900963365445516,0.2722116306325333
2.8920964032134404,0.5103481736238572
2.8940964698823293,0.11524274116424746
2.896096536551218,-0.21445071527840714
2.8980966032201074,-0.1181100382618539
2.9000966698889963,-0.15080747290406415
2.902096736557885,0.2669466561082759
2.904096803226774,-0.024276849298573766
2.906096869895663,-0.08703488733738188
2.908096936564552,0.044220893956520776
2.910097003233441,-0.15385647854045195
2.91209706990233,0.2594157214845861
2.9140971365712187,0.2108485876360338
2.916097203240108,-0.12895204543002747
2.918097269908997,-0.0728945957354973
2.9200973365778857,-0.08714964238343281
2.9220974032467746,0.07947153886891685
2.924097469915664,-0.1919861117281562
2.9260975365845527,-0.21634606226249314
2.9280976032534416,-0.3133585918634572
2.9300976699223305,-0.15949767374650442
2.9320977365912197,-0.17239850523987166
2.9340978032601086,-0.12435534181833634
2.9360978699289975,-0.26281181921092556
2.9380979365978863,-0.08950623939487143
2.9400980032667756,-0.3544960831673425
2.9420980699356645,-0.3699069956140798
2.9440981366045533,-0.2397675721683472
2.946098203273442,-0.5601392840323778
2.9480982699423315,-0.46982099330804367
2.9500983366112203,-0.3439439978913071
2.952098403280109,-0.39877602546789204
2.954098469948998,-0.5246054701945664
2.9560985366178874,-0.21044321024098456
2.958098603286776,-0.40295460167516095
2.960098669955665,-0.6802711250935778
2.962098736624554,-0.3737151335956128
2.9640988032934428,-0.724622068426415
2.966098869962332,-0.06317297960563867
2.968098936631221,-0.7508973078183331
2.97009900330011,-0.6693374299780364
2.9720990699689986,-0.636139089664621
2.974099136637888,-0.4232144348435205
2.976099203306777,-0.8203590131185818
2.9780992699756657,-0.9022078189177178
2.9800993366445545,-0.7956648572758028
2.982099403313444,-0.9355132349846171
2.9840994699823327,-0.8666378439516137
2.9860995366512215,-0.9743296410685638
2.9880996033201104,-0.8514232161113675
2.9900996699889997,-0.9408544324529224
2.9920997366578885,-0.3966491021608324
2.9940998033267774,-0.6219739135030421
2.9960998699956662,-1.0361044775225494
2.9980999366645555,-0.9002910336018926
3.0001000033334444,-0.8494621566484046
3.0021000700023333,-0.563242902232676
3.004100136671222,-0.7419263372413285
3.0061002033401114,-0.8781168672779542
3.0081002700090003,-1.0266400389147827
3.010100336677889,-1.3236069887132051
3.012100403346778,-1.035474888860329
3.0141004700156673,-1.188563322588617
3.016100536684556,-1.2122321270116732
3.018100603353445,-0.5848066920125441
3.020100670022334,-1.1560116885006688
3.0221007366912227,-1.2051255081263013
3.024100803360112,-1.283401450120666
3.026100870029001,-1.2278957782631306
3.0281009366978897,-1.291657452159568
3.0301010033667786,-0.9685282732219955
3.032101070035668,-0.7776331841576523
3.0341011367045567,-1.1538888020141196
3.0361012033734456,-1.1574964204831197
3.0381012700423344,-1.222782039795362
3.0401013367112237,-1.390197253530612
3.0421014033801126,-1.6246703894592742
3.0441014700490014,-1.1507272081636544
3.0461015367178903,-1.099075812517138
3.0481016033867796,-1.4013154382270698
3.0501016700556685,-1.190579674032624
3.0521017367245573,-1.618056626652313
3.054101803393446,-1.1702039875022558
3.0561018700623355,-1.756608291305247
3.0581019367312243,-1.5170314876123763
3.060102003400113,-1.4555684302168297
3.062102070069002,-1.371917398662218
3.0641021367378913,-1.2762130842383723
3.06610220340678,-1.286389023219846
3.068102270075669,-1.5033069052973989
3.070102336744558,-1.2996406617202352
3.0721024034134468,-1.3931327233353645
3.074102470082336,-1.7318236530914226
3.076102536751225,-1.3454840760416353
3.0781026034201138,-1.7927324224478514
3.0801026700890026,-1.34354378293676
3.082102736757892,-1.4258163603797198
3.084102803426781,-1.334710629487326
3.0861028700956696,-1.5367969760182665
3.0881029367645585,-1.492832150530697
3.090103003433448,-1.1057569619753895
3.0921030701023366,-1.4216008555183512
3.0941031367712255,-1.3625483750741547
3.0961032034401144,-1.7347557515879417
3.0981032701090037,-1.5667276397399574
3.1001033367778925,-1.436433371100633
3.1021034034467814,-1.066348858946393
3.1041034701156702,-1.6210576242914485
3.1061035367845595,-1.5413617845917797
3.1081036034534484,-1.375416284621936
3.1101036701223372,-1.4671467549163388
3.112103736791226,-1.2038107651496814
3.1141038034601154,-1.3324695418319035
3.1161038701290042,-1.4502058205604162
3.118103936797893,-1.6855203677853896
3.120104003466782,-1.4034212039552205
3.1221040701356713,-1.7525103107247004
3.12410413680456,-0.9956179138198377
3.126104203473449,-1.6259743984790236
3.128104270142338,-1.1646230227012564
3.1301043368112267,-1.3382895740669578
3.132104403480116,-1.5546784332164556
3.134104470149005,-1.4539178130289057
3.1361045368178937,-1.3430442080391456
3.1381046034867826,-1.2849874082533048
3.140104670155672,-1.4123116430257499
3.1421047368245607,-1.578362968648455
3.1441048034934496,-1.4180597805784056
3.1461048701623384,-1.5626953595587338
3.1481049368312277,-1.6614368357470428
3.1501050035001166,-1.6443636835443731
3.1521050701690054,-1.5047900907861596
3.1541051368378943,-1.8108175118560923
3.1561052035067836,-1.3635838523669466
3.1581052701756724,-1.5147848007999238
3.1601053368445613,-1.3489719594125205
3.16210540351345,-1.3234603695442206
3.1641054701823395,-1.187987867174181
3.1661055368512283,-1.769331307004558
3.168105603520117,-1.3279190565685406
3.170105670189006,-1.278790769600094
3.1721057368578953,-1.7446977612667238
3.174105803526784,-1.5096163229206272
3.176105870195673,-1.0876609610225811
3.178105936864562,-1.1201063521286638
3.180106003533451,-1.2433937855078185
3.18210607020234,-1.7176796610325815
3.184106136871229,-1.2314708494647588
3.1861062035401178,-1.8285903626183517
3.1881062702090066,-1.438521483989817
3.190106336877896,-1.2093921851024236
3.1921064035467848,-1.6614450505765328
3.1941064702156736,-1.4036895116294188
3.1961065368845625,-1.114289220086459
3.1981066035534518,-1.411087417374144
3.2001066702223406,-1.0653172344787325
3.2021067368912295,-1.139311042600524
3.2041068035601183,-1.3177466208619806
3.2061068702290076,-0.8205979166839665
3.2081069368978965,-1.3623417367218793
3.2101070035667854,-1.0063288218322768
3.212107070235674,-1.172869384266933
3.2141071369045635,-1.2775332350534705
3.2161072035734524,-1.3264925040530948
3.2181072702423412,-0.7806453193225453
3.22010733691123,-1.080680081034622
3.2221074035801194,-0.9826398209285319
3.2241074702490082,-1.1205242488945595
3.226107536917897,-1.081064203207593
3.228107603586786,-1.145275852856086
3.2301076702556752,-0.9948985522881302
3.232107736924564,-1.219761372929551
3.234107803593453,-1.009786021507696
3.236107870262342,-0.8452266879867029
3.238107936931231,-1.1982472872707834
3.24010800360012,-0.7125614711861068
3.242108070269009,-0.9757849325835877
3.2441081369378977,-0.9244079157829364
3.2461082036067865,-0.9431851633827508
3.248108270275676,-1.12610789184928
3.2501083369445647,-1.3883959698831925
3.2521084036134535,-0.9473458172244913
3.2541084702823424,-1.1359075529367857
3.2561085369512317,-0.8571301920567643
3.2581086036201206,-1.1953117822033863
3.2601086702890094,-0.9685993845733357
3.2621087369578983,-0.8132241840180796
3.2641088036267876,-0.5560500214476035
3.2661088702956764,-0.876146754145903
3.2681089369645653,-1.0367926561535086
3.270109003633454,-0.6020915718378297
3.2721090703023434,-0.6774226601280114
3.2741091369712323,-0.599105049726927
3.276109203640121,-0.8066784219996331
3.27810927030901,-0.6401845904017014
3.2801093369778993,-0.26124902143272516
3.282109403646788,-0.5505639008235935
3.284109470315677,-0.4057652386269449
3.286109536984566,-0.27982564748739536
3.288109603653455,-0.5055167795102358
3.290109670322344,-0.33338960706952314
3.292109736991233,-0.33697120872847774
3.2941098036601217,-0.13155678546615612
3.296109870329011,-0.29036570459776234
3.2981099369979,-0.48049845131437596
3.3001100036667887,-0.19282730285601105
3.3021100703356776,-0.34937823293935205
3.3041101370045665,-0.5374059633809698
3.3061102036734558,-0.48804003811677255
3.3081102703423446,-0.16738634780525802
3.3101103370112335,-0.5013137193232539
3.3121104036801223,-0.417131351001787
3.3141104703490116,-0.06706111840664908
3.3161105370179005,-0.14324791247169658
3.3181106036867893,-0.5123281157926826
3.320110670355678,0.005661447147690318
3.3221107370245675,-0.4657840315346653
3.3241108036934564,0.052670947087263525
3.326110870362345,0.11232169564274971
3.328110937031234,0.18923455354350904
3.3301110037001234,-0.19451834142641142
3.332111070369012,-0.29919579256576007
3.334111137037901,-0.11827167251571839
3.33611120370679,-0.043819851733946716
3.3381112703756792,0.010013465143632924
3.340111337044568,0.11465562656743042
3.342111403713457,-0.11716811155190104
3.344111470382346,0.03089771285812537
3.346111537051235,0.5238314260949725
3.348111603720124,0.3432601444411947
3.350111670389013,-0.10657249322630188
3.3521117370579017,-0.0049787115530217085
3.354111803726791,0.19234300225638332
3.35611187039568,0.14904285677997528
3.3581119370645687,0.5088270672761781
3.3601120037334575,0.36727061982952913
3.3621120704023464,0.5577620494219274
3.3641121370712357,0.2802731658927018
3.3661122037401245,0.3980168221628184
3.3681122704090134,0.5142348516038361
3.3701123370779023,0.3394870656206137
3.3721124037467916,0.48113307839805497
3.3741124704156804,0.8744174953673953
3.3761125370845693,0.7178704194944254
3.378112603753458,0.4152671204767831
3.3801126704223474,0.3093833220332084
3.3821127370912363,0.5744742922495973
3.384112803760125,0.5007024923458921
3.386112870429014,0.8786540111999047
3.3881129370979033,0.4723586702247492
3.390113003766792,1.01327237757088
3.392113070435681,0.49080093710121364
3.39411313710457,0.9143750223381428
3.396113203773459,0.7122047657627574
3.398113270442348,0.5221395794033454
3.400113337111237,0.6697187817028725
3.4021134037801257,0.3756875534828888
3.404113470449015,0.29591096567583897
3.406113537117904,0.6956736531516288
3.4081136037867927,0.8248382231717808
3.4101136704556816,0.9963864981516912
3.412113737124571,1.257341269617946
3.4141138037934597,0.8120521206887308
3.4161138704623486,0.7887684031514031
3.4181139371312375,0.8283208553480356
3.4201140038001263,0.4571638951722989
3.4221140704690156,1.1892444687277675
3.4241141371379045,1.257451486030575
3.4261142038067933,0.9548491436892544
3.428114270475682,0.9109230688509504
3.4301143371445715,0.9587043235339343
3.4321144038134603,0.8757621941493691
3.434114470482349,0.8723285924423468
3.436114537151238,1.173708831672349
3.4381146038201273,1.3061915242831899
3.440114670489016,1.2431722940398247
3.442114737157905,0.9089632627337634
3.444114803826794,1.0699935907264766
3.446114870495683,1.0956156941536213
3.448114937164572,1.219821729915403
3.450115003833461,1.1732816910085384
3.45211507050235,1.069839061752484
3.454115137171239,1.3950665999928757
3.456115203840128,1.2618138445356006
3.458115270509017,0.828342046073161
3.4601153371779056,1.425298470396267
3.462115403846795,1.034517597492769
3.464115470515684,1.0105488378474508
3.4661155371845727,1.460811434546272
3.4681156038534615,1.0139726009350816
3.470115670522351,0.9076814728688509
3.4721157371912397,1.3723881431980738
3.4741158038601285,1.5509241559275972
3.4761158705290174,1.2756385273918445
3.4781159371979062,1.7192762873154512
3.4801160038667955,0.7574538958895559
3.4821160705356844,1.139778228729072
3.4841161372045732,1.4849049574868483
3.486116203873462,1.3760758278427183
3.4881162705423514,1.210097665601265
3.4901163372112403,1.5921385176241987
3.492116403880129,1.3923417301402523
3.494116470549018,1.3625454556844887
3.4961165372179073,1.2595675193295253
3.498116603886796,1.3143242915295126
3.500116670555685,1.535493597780985
3.502116737224574,1.2900669096555601
3.504116803893463,1.2233478672100018
3.506116870562352,1.6879678923455455
3.508116937231241,1.5268914736472423
3.5101170039001297,1.9011662142734753
3.512117070569019,1.3776543303392386
3.514117137237908,1.8621980840167693
3.5161172039067967,1.6603521216017034
3.5181172705756856,1.6551599994095836
3.520117337244575,1.1008906237742642
3.5221174039134637,1.699537848802147
3.5241174705823526,1.6591758274048334
3.5261175372512414,1.4962297770814517
3.5281176039201303,1.2958961621908185
3.5301176705890196,1.3573131744404605
3.5321177372579085,1.7534009824698045
3.5341178039267973,1.7896194567592774
3.536117870595686,1.3739654725769719
3.5381179372645755,1.4335951911733504
3.5401180039334643,1.5789728202992432
3.542118070602353,1.4077664817593543
3.544118137271242,1.6358251647851918
3.5461182039401313,1.3103654227839505
3.54811827060902,1.5860628843633409
3.550118337277909,1.4974798860358698
3.552118403946798,1.521341687115382
3.554118470615687,1.585741096139342
3.556118537284576,1.5106807253930705
3.558118603953465,1.5633270215676671
3.5601186706223538,1.7134194682433974
3.562118737291243,1.4912676454613147
3.564118803960132,1.4561828872861078
3.5661188706290208,1.4024116493490857
3.5681189372979096,1.4619807082902865
3.570119003966799,1.606580109489513
3.572119070635688,1.5481879722310556
3.5741191373045766,1.7150604595244423
3.5761192039734655,1.1719233915386658
3.578119270642355,1.5954769863254574
3.5801193373112437,1.7915075473313617
3.5821194039801325,1.4711087178932587
3.5841194706490214,1.6964626924285753
3.58611953731791,1.520862339878689
3.5881196039867995,1.3641840099765716
3.5901196706556884,1.528115869869304
3.5921197373245772,1.5048666188099606
3.594119803993466,1.147252822615911
3.5961198706623554,1.487013711030305
3.5981199373312442,1.4757723088434316
3.600120004000133,1.6198842088994296
3.602120070669022,1.0703603326651439
3.6041201373379113,1.3783037201666555
3.6061202040068,1.0850722430481419
3.608120270675689,1.1467361438236785
3.610120337344578,1.4046917107415717
3.612120404013467,1.2626629581291011
3.614120470682356,0.9805401041124799
3.616120537351245,1.1304868999499036
3.6181206040201337,0.9548256238220793
3.620120670689023,1.02021349499901
3.622120737357912,1.3186537828746805
3.6241208040268007,1.5923350647134509
3.6261208706956896,1.4956082738166463
3.628120937364579,1.285942022720105
3.6301210040334677,0.7401207320191008
3.6321210707023566,1.2482377296414977
3.6341211373712454,0.9848366316153421
3.6361212040401347,1.2623328787846737
3.6381212707090236,1.3681227746841418
3.6401213373779124,0.8692445413250098
3.6421214040468013,1.2331550078468734
3.64412147071569,1.1847221392660874
3.6461215373845794,1.1161168139877788
3.6481216040534683,1.0772515029235337
3.650121670722357,0.8299711908374472
3.652121737391246,1.2723346833798586
3.6541218040601353,1.2090459068128723
3.656121870729024,1.0637387401962444
3.658121937397913,1.348367003501716
3.660122004066802,0.6310158083288802
3.662122070735691,0.9097016435116493
3.66412213740458,0.7695261671878785
3.666122204073469,0.6493282700929894
3.6681222707423577,0.8961349209099625
3.670122337411247,0.8791661348099652
3.672122404080136,0.9571237548992809
3.6741224707490248,0.6277014687153804
3.6761225374179136,1.069340922776252
3.678122604086803,0.6857120392597982
3.6801226707556918,0.8311399335180907
3.6821227374245806,0.8987640947262048
3.6841228040934695,0.61354191167255
3.686122870762359,0.7719323545650545
3.6881229374312476,0.6016012910850053
3.6901230041001365,0.6355397701847251
3.6921230707690254,0.3217369639679978
3.6941231374379147,0.6565072115894969
3.6961232041068035,0.36317314012619856
3.6981232707756924,0.3547735564628968
3.700123337444581,0.6422255197133907
3.70212340411347,0.3114685228766906
3.7041234707823594,0.4634406402510146
3.7061235374512482,0.1776411868590565
3.708123604120137,0.410963901027232
3.710123670789026,0.2521638494540769
3.7121237374579152,0.3535455764538717
3.714123804126804,0.4608313848229597
3.716123870795693,0.5350647243775883
3.718123937464582,-0.047107271215934554
3.720124004133471,0.5393075064544571
3.72212407080236,0.4134461765133706
3.724124137471249,0.09926135922447973
3.7261242041401377,0.45616975984039243
3.728124270809027,0.15524405066724783
3.730124337477916,0.46675411359164753
3.7321244041468047,-0.18911381102395636
3.7341244708156935,0.4636443300916284
3.736124537484583,0.30370321064742056
3.7381246041534717,0.41405717304517825
3.7401246708223606,0.12120982041392458
3.7421247374912494,0.06908955621928642
3.7441248041601387,0.1997792627574289
3.7461248708290276,0.05127063661813025
3.7481249374979164,0.13537223646956945
3.7501250041668053,-0.12948748475881855
3.7521250708356946,0.002705812237408088
3.7541251375045834,-0.35598130127849986
3.7561252041734723,-0.03767618268050313
3.758125270842361,0.04529104637679779
3.76012533751125,0.24713603753416075
3.7621254041801393,-0.07553402830929579
3.764125470849028,-0.10304105888009474
3.766125537517917,-0.22620233533648282
3.768125604186806,-0.15269537635692193
3.770125670855695,-0.3274116005607858
3.772125737524584,-0.21262211035281564
3.774125804193473,-0.24193791072517667
3.7761258708623617,-0.25074640408113885
3.778125937531251,0.11208408948387377
3.78012600420014,-0.6958352804153907
3.7821260708690287,-0.5727596036880136
3.7841261375379176,-0.5502224702999045
3.786126204206807,-0.3054980340633078
3.7881262708756958,-0.6042540823633309
3.7901263375445846,0.08975159250680637
3.7921264042134735,-0.27042268223470656
3.7941264708823628,-0.8400672039967434
3.7961265375512516,-0.6465486089655856
3.7981266042201405,-0.4479037163821722
3.8001266708890293,-0.515979899432398
3.8021267375579186,-0.7152398490018552
3.8041268042268075,-0.9014268291099772
3.8061268708956963,-0.6544072312003887
3.808126937564585,-0.5419093617844173
3.8101270042334745,-0.2449256643883756
3.8121270709023634,-0.8513350630086525
3.814127137571252,-0.871777185950106
3.816127204240141,-0.8905747322087264
3.81812727090903,-0.5820940197466998
3.8201273375779192,-0.6782880275034577
3.822127404246808,-0.7780118392565365
3.824127470915697,-0.9645613526479939
3.826127537584586,-1.1466192294228064
3.828127604253475,-1.0700210580492147
3.830127670922364,-0.5336758730779332
3.832127737591253,-1.2248398035236383
3.8341278042601417,-1.0977981714624634
3.836127870929031,-0.7783438395532899
3.83812793759792,-0.956615503171335
3.8401280042668087,-1.0044338720197064
3.8421280709356975,-1.0365963009528776
3.844128137604587,-0.6062656133515392
3.8461282042734757,-1.3359936029976822
3.8481282709423645,-1.0781996454914462
3.8501283376112534,-0.7634036692061638
3.8521284042801427,-1.2726212503965815
3.8541284709490315,-0.9119158813148247
3.8561285376179204,-0.8451514142003207
3.8581286042868093,-1.3895271079323703
3.8601286709556986,-1.1301696078710708
3.8621287376245874,-0.9814711833954446
3.8641288042934763,-0.9050151144119226
3.866128870962365,-0.9506745785266602
3.8681289376312544,-1.381438204922046
3.8701290043001433,-1.0326364546663105
3.872129070969032,-1.1085309304558792
3.874129137637921,-1.1134076790789507
3.87612920430681,-1.5022284775448231
3.878129270975699,-1.5341011137520084
3.880129337644588,-1.084366814031469
3.882129404313477,-1.3839305222366438
3.8841294709823657,-1.550253707338617
3.886129537651255,-1.4687118349058168
3.888129604320144,-1.3371957699837855
3.8901296709890327,-1.2109111382501094
3.8921297376579216,-1.2008244171200677
3.894129804326811,-1.6094030409111622
3.8961298709956997,-1.2013247660585984
3.8981299376645886,-0.9358938037349478
3.9001300043334775,-1.4747218535384787
3.9021300710023668,-1.3367253452698282
3.9041301376712556,-1.3612221613510274
3.9061302043401445,-0.9989656556916007
3.9081302710090333,-1.2023764212524584
3.9101303376779226,-1.2844318679967146
3.9121304043468115,-1.3398353174637778
3.9141304710157003,-1.1788311419499795
3.916130537684589,-1.0595724529182813
3.9181306043534785,-1.633180981119343
3.9201306710223673,-1.3095102600519106
3.922130737691256,-1.2336687062116058
3.924130804360145,-1.6056857641154518
3.926130871029034,-1.066617974408139
3.928130937697923,-1.1610919537750468
3.930131004366812,-1.3584300900953743
3.932131071035701,-1.2438509426116464
3.9341311377045898,-1.472409541259778
3.936131204373479,-1.5278578516752446
3.938131271042368,-1.1322789643176876
3.940131337711257,-1.29514479815285
3.9421314043801456,-1.0306559640175603
3.944131471049035,-1.5110338360420974
3.946131537717924,-1.2304590608942652
3.9481316043868127,-1.7726813442489135
3.9501316710557015,-1.7624404718252933
3.952131737724591,-1.1925227074680513
3.9541318043934797,-1.7525413902358697
3.9561318710623685,-1.5172453604943472
3.9581319377312574,-1.5201689486674954
3.9601320044001467,-1.5690394658392675
3.9621320710690355,-1.5368106140021303
3.9641321377379244,-1.3564527624878386
3.9661322044068132,-1.5447693139598127
3.9681322710757025,-1.4644928562885566
3.9701323377445914,-1.16821176325139
3.9721324044134803,-1.617458006225427
3.974132471082369,-1.5750938520353186
3.9761325377512584,-1.6148787550471786
3.9781326044201473,-1.4718702157839154
3.980132671089036,-1.5130622391756525
3.982132737757925,-1.4661887515521053
3.984132804426814,-1.688599851035839
3.986132871095703,-1.521280282459937
3.988132937764592,-1.3596083582162561
3.990133004433481,-1.4809942854626779
3.9921330711023697,-0.9110961694009753
3.994133137771259,-1.0828098652169085
3.996133204440148,-1.653445744974825
3.9981332711090367,-1.6152823285034914
4.000133337777926,-1.2158092320819935
4.002133404446814,-1.1739945901117124
4.004133471115703,-1.3288880681027782
4.006133537784593,-1.5779202773862544
4.008133604453482,-1.4026723181626495
4.010133671122371,-1.6671132371412192
4.01213373779126,-1.3993499340086766
4.0141338044601484,-1.209606425149202
4.016133871129037,-1.1410419515642
4.018133937797926,-0.9627397492111895
4.020134004466815,-1.0901196572968366
4.022134071135705,-1.446208149403325
4.024134137804594,-1.0445248633806918
4.0261342044734825,-1.140084442459103
4.028134271142371,-1.237687466367847
4.03013433781126,-1.1009989602937484
4.032134404480149,-1.238916739173885
4.034134471149038,-1.182293422797905
4.036134537817927,-1.5180907000776134
4.0381346044868165,-0.9764704348938891
4.040134671155705,-1.1267154331141493
4.042134737824594,-1.135860470002166
4.044134804493483,-1.0348112386364663
4.046134871162372,-1.1250064998648708
4.048134937831261,-0.9914745232301174
4.05013500450015,-1.1367305694744374
4.0521350711690385,-1.1583052701135617
4.054135137837927,-0.9889760980551343
4.056135204506817,-1.231342281033341
4.058135271175706,-1.3969722811708218
4.060135337844595,-0.9826575720336308
4.062135404513484,-1.1478826838700469
4.0641354711823725,-1.2715555461526562
4.066135537851261,-0.9995784403569049
4.06813560452015,-1.326734537808963
4.070135671189039,-1.374787991420229
4.072135737857929,-1.1197744522712851
4.074135804526818,-0.8883404312959305
4.0761358711957065,-0.6465297765093873
4.078135937864595,-1.1326522793509186
4.080136004533484,-1.027770838660162
4.082136071202373,-0.8436274365847657
4.084136137871262,-0.5003550471466632
4.086136204540151,-0.9420946212469219
4.0881362712090406,-0.7937997275593284
4.090136337877929,-1.0601497791969636
4.092136404546818,-0.7588334667287707
4.094136471215707,-0.8550915898774011
4.096136537884596,-0.7796820410364127
4.098136604553485,-0.7917246746530726
4.100136671222374,-0.7066883377482109
4.1021367378912625,-0.6815102114627092
4.104136804560151,-1.0351926957877517
4.106136871229041,-0.8284791376978099
4.10813693789793,-0.3211948473258123
4.110137004566819,-0.4865293441634585
4.112137071235708,-0.6498877815228582
4.114137137904597,-0.4534566317998556
4.116137204573485,-0.4235981553245831
4.118137271242374,-0.7602419924139542
4.120137337911263,-0.24575769985195722
4.122137404580153,-0.29926285234900407
4.124137471249042,-0.9015067941771135
4.126137537917931,-0.5632447955007944
4.128137604586819,-0.2979202955365778
4.130137671255708,-0.11882528725461577
4.132137737924597,-0.45325198955799795
4.134137804593486,-0.5652536419487744
4.136137871262375,-0.727947654210078
4.138137937931265,-0.0510220757476158
4.1401380046001535,-0.24386517582192963
4.142138071269042,-0.15139316899090666
4.144138137937931,-0.1896771063441783
4.14613820460682,-0.3225430905284713
4.148138271275709,-0.0906720098099883
4.150138337944598,0.02080223695949643
4.152138404613487,-0.2864339692662186
4.1541384712823755,-0.009001067170273158
4.156138537951265,-0.06554217641568036
4.158138604620154,0.09711954204751413
4.160138671289043,-0.22289037953217566
4.162138737957932,-0.09798408647446583
4.164138804626821,-0.3889705675824155
4.1661388712957095,0.026317395770315152
4.168138937964598,-0.011045220080556764
4.170139004633487,0.2711929138336889
4.172139071302377,-0.03248762195572373
4.174139137971266,-0.33833995457435423
4.176139204640155,0.21252430518221752
4.1781392713090435,-0.14529696878798434
4.180139337977932,0.08125173898205106
4.182139404646821,0.03825076482732684
4.18413947131571,0.40095280797674887
4.186139537984599,0.16119656599963814
4.188139604653489,0.3168833948308597
4.1901396713223775,0.25006008617985565
4.192139737991266,0.36295891870646946
4.194139804660155,0.3715649320409755
4.196139871329044,0.33118551684124475
4.198139937997933,0.38362171104535925
4.200140004666822,0.5347719149270542
4.202140071335711,0.2837324709770344
4.2041401380046,0.2351367857593777
4.206140204673489,0.5165470458732134
4.208140271342378,0.6163003235890185
4.210140338011267,0.35165031515224277
4.212140404680156,0.5468796646692639
4.214140471349045,0.4724084182424359
4.2161405380179335,0.5006261130699536
4.218140604686822,0.8308329380226603
4.220140671355711,0.6138150963011939
4.222140738024601,0.5692537685504658
4.22414080469349,0.4899959417588464
4.226140871362379,0.33886844976074837
4.228140938031268,0.5877940535901277
4.230141004700156,0.9751053293273259
4.232141071369045,0.9214094460383985
4.234141138037934,1.0609212536607724
4.236141204706823,0.41441718813430267
4.238141271375713,0.7332741489452665
4.240141338044602,0.6836720771635945
4.24214140471349,0.7045981936260266
4.244141471382379,0.47423576378455606
4.246141538051268,0.6680827798568671
4.248141604720157,1.1232281142799756
4.250141671389046,0.7618001072263353
4.252141738057935,0.7056206349743394
4.2541418047268245,1.0954381852192616
4.256141871395713,1.1895211546753623
4.258141938064602,0.7862458172722692
4.260142004733491,0.9668238867799027
4.26214207140238,0.8315704275876065
4.264142138071269,1.0768826964159846
4.266142204740158,1.0174828675109684
4.2681422714090465,1.214329694155095
4.270142338077935,0.9513949672634954
4.272142404746825,1.3746301490295507
4.274142471415714,1.240715071928416
4.276142538084603,1.1483997337575722
4.278142604753492,1.3684294011939917
4.2801426714223805,0.8688307357838458
4.282142738091269,1.0347411077222086
4.284142804760158,1.3704983647190836
4.286142871429047,1.337918025496914
4.288142938097937,1.0379519005318274
4.290143004766826,1.4468810792999178
4.2921430714357145,1.1525310949094811
4.294143138104603,1.5273160846494358
4.296143204773492,1.6872998178892096
4.298143271442381,1.0184734992108009
4.30014333811127,0.989141446270903
4.302143404780159,1.22749459804121
4.3041434714490485,1.0330692006273925
4.306143538117937,1.1186259919653825
4.308143604786826,1.477517380181165
4.310143671455715,1.2832208045080729
4.312143738124604,1.3010195501533257
4.314143804793493,1.1870044411692202
4.316143871462382,1.2444427821160733
4.3181439381312705,1.232519630477197
4.32014400480016,1.4260658811110083
4.322144071469049,1.5631949220289503
4.324144138137938,1.871138617291558
4.326144204806827,1.412346566042486
4.328144271475716,1.3661462630952905
4.3301443381446045,1.340918866775025
4.332144404813493,1.1801522298657323
4.334144471482382,1.3912945968196773
4.336144538151271,1.2568135521918136
4.338144604820161,1.2986991031586885
4.34014467148905,1.7511844757379027
4.3421447381579386,1.5788188701324521
4.344144804826827,1.3153299487822931
4.346144871495716,1.419938894594669
4.348144938164605,1.2422406655353253
4.350145004833494,1.8302532602883461
4.352145071502383,1.0562351410525044
4.354145138171273,1.4652515732373579
4.356145204840161,1.294556403930859
4.35814527150905,1.7842855290899216
4.360145338177939,1.438460053116288
4.362145404846828,1.4832017530223887
4.364145471515717,1.4048814945957664
4.366145538184606,1.4244823887145557
4.368145604853495,1.6466767195147793
4.370145671522384,1.2777289989306482
4.372145738191273,1.4799515935468686
4.374145804860162,1.1625400114214455
4.376145871529051,1.1993415896082391
4.37814593819794,1.5778071004550045
4.380146004866829,1.7921443034586142
4.3821460715357174,1.3939751395084943
4.384146138204606,1.87495197525022
4.386146204873495,1.8332609412530432
4.388146271542385,1.6414708627376144
4.390146338211274,1.7011082003110405
4.392146404880163,1.574570329359873
4.3941464715490515,1.4980024624095065
4.39614653821794,1.2396733118203114
4.398146604886829,1.3830563631853772
4.400146671555718,1.7135706939226236
4.402146738224607,1.152133286807341
4.404146804893497,1.4927377932887174
4.4061468715623855,1.629763185917157
4.408146938231274,1.261507725873162
4.410147004900163,1.3025936205942046
4.412147071569052,1.5329330110125416
4.414147138237941,1.5555273229250264
4.41614720490683,1.382105275395079
4.418147271575719,1.2898119824816645
4.420147338244608,1.538451585936381
4.422147404913497,1.5340334692210362
4.424147471582386,1.7910285174454672
4.426147538251275,1.4089221804671463
4.428147604920164,1.3738594314359678
4.430147671589053,1.3867865231529375
4.4321477382579415,1.214426295108993
4.43414780492683,1.211896754245169
4.43614787159572,1.072115485595552
4.438147938264609,1.3201074341739736
4.440148004933498,1.015301360773381
4.442148071602387,1.1568639699089356
4.4441481382712755,1.3614852377493663
4.446148204940164,1.7274147842077567
4.448148271609053,1.3903317405366535
4.450148338277942,1.139708568696732
4.452148404946831,1.310336751260818
4.454148471615721,1.4607464837507103
4.4561485382846096,1.682539638835523
4.458148604953498,1.239133244964799
4.460148671622387,1.2943918593686785
4.462148738291276,1.3432690562281184
4.464148804960165,1.0161696477297655
4.466148871629054,1.3196316334219969
4.468148938297943,0.7949232219811531
4.470149004966832,1.1092026022170094
4.472149071635721,1.0190024495159569
4.47414913830461,1.313834324708928
4.476149204973499,1.3932346118000614
4.478149271642388,0.9466803478608192
4.480149338311277,1.2741913254518447
4.482149404980166,1.1449583568057629
4.484149471649054,0.7213579341631406
4.486149538317944,0.9627689800493527
4.488149604986833,1.4549224595481163
4.490149671655722,1.1000807850575858
4.492149738324611,0.8011019651707527
4.4941498049935,1.1487039736287725
4.496149871662388,1.0478903716538719
4.498149938331277,0.8407936694559138
4.500150005000166,1.124864670557588
4.502150071669055,0.7164271801070596
4.504150138337945,1.0150178263120706
4.506150205006834,0.7234989523620816
4.5081502716757225,1.0099694253490605
4.510150338344611,0.8508119418402194
4.5121504050135,0.8909347962896186
4.514150471682389,0.6941007940333618
4.516150538351278,0.9193410799452765
4.518150605020167,1.247485531637385
4.5201506716890565,0.5763790599881453
4.522150738357945,0.7282251232948809
4.524150805026834,0.677686133965964
4.526150871695723,0.526301524081749
4.528150938364612,0.578943276523278
4.530151005033501,0.49170973326564565
4.53215107170239,0.523029415673164
4.5341511383712785,0.6100474448756374
4.536151205040168,0.25616701463700065
4.538151271709057,0.4956308363395627
4.540151338377946,0.4669656856342162
4.542151405046835,0.10709836521068472
4.544151471715724,0.06188685030401442
4.5461515383846125,0.5278618361267277
4.548151605053501,0.751167866936141
4.55015167172239,0.39027502423884913
4.552151738391279,0.1840981958427423
4.554151805060169,0.06616698013414657
4.556151871729058,0.4343245990666509
4.5581519383979465,-0.05080261830869354
4.560152005066835,0.49676670081481333
4.562152071735724,-0.001498839994877793
4.564152138404613,0.2783135338981711
4.566152205073502,0.09546551594804532
4.568152271742391,0.3258416258732716
4.5701523384112805,0.38707033208650954
4.572152405080169,0.2314641253397582
4.574152471749058,-0.30546796496656436
4.576152538417947,-0.015225737172465947
4.578152605086836,0.05354131029263742
4.580152671755725,-0.30942158732071456
4.582152738424614,-0.03023024613723306
4.5841528050935025,-0.06902115728488883
4.586152871762392,0.33848908230484837
4.588152938431281,-0.2566050543257444
4.59015300510017,-0.23945975588361051
4.592153071769059,0.06384889805376429
4.594153138437948,-0.08363589189175955
4.596153205106837,-0.22970097629737227
4.598153271775725,-0.6614749287146132
4.600153338444614,-0.08646368352640196
4.602153405113504,0.40808599710684923
4.604153471782393,-0.04320670582853969
4.606153538451282,-0.4663270247933883
4.608153605120171,-0.4753169049214264
4.610153671789059,-0.25468720706722037
4.612153738457948,-0.06363773133295664
4.614153805126837,-0.23987651870807244
4.616153871795726,-0.38817348835324506
4.618153938464615,-0.13059797808419982
4.620154005133505,-0.5528348584132704
4.6221540718023935,-0.2201235611724533
4.624154138471282,-0.38549476615778755
4.626154205140171,-0.5630167846022536
4.62815427180906,-0.472964641830541
4.630154338477949,-0.4117877623274159
4.632154405146838,-1.0152877642765183
4.634154471815727,-0.447500072165218
4.636154538484616,-0.6125979969890489
4.638154605153505,-0.6213279088193563
4.640154671822394,-0.805697261337009
4.642154738491283,-0.6110490504105758
4.644154805160172,-0.9133080159399787
4.646154871829061,-0.42924419998827074
4.6481549384979495,-0.7246715713866047
4.650155005166838,-0.768826434346994
4.652155071835728,-0.7840754798829501
4.654155138504617,-0.8066370066886986
4.656155205173506,-1.0924012611198952
4.658155271842395,-0.7063099357559476
4.6601553385112835,-0.4274169926068498
4.662155405180172,-1.0348154289696911
4.664155471849061,-0.6816419970141844
4.66615553851795,-0.5548237639245
4.668155605186839,-0.7134566225449716
4.670155671855729,-1.0056385796656566
4.6721557385246175,-0.7558708393996671
4.674155805193506,-0.8097596663840994
4.676155871862395,-0.9500161974147168
4.678155938531284,-1.1775546014019667
4.680156005200173,-0.9678897283151333
4.682156071869062,-0.6600704334768837
4.684156138537951,-1.0849798120805565
4.68615620520684,-1.0824553822924474
4.688156271875729,-1.0036245151378433
4.690156338544618,-1.1484039462943705
4.692156405213507,-1.4063235986302332
4.694156471882396,-1.0007908907549086
4.696156538551285,-1.1979904609636944
4.6981566052201735,-1.030795764960159
4.700156671889062,-1.1866947368952183
4.702156738557952,-1.0170828633715616
4.704156805226841,-0.9654945635814449
4.70615687189573,-1.276939062364038
4.708156938564619,-1.2289029867521435
4.7101570052335076,-1.3821127228200534
4.712157071902396,-1.322077236507402
4.714157138571285,-1.4597999661942307
4.716157205240174,-1.147678473879972
4.718157271909064,-0.9208370895100721
4.720157338577953,-1.4339592631527207
4.722157405246842,-1.3615695731321629
4.72415747191573,-1.7452974163496984
4.726157538584619,-1.6575401686299918
4.728157605253508,-1.2415499784657498
4.730157671922397,-2.033184319211219
4.732157738591286,-1.363283937284174
4.734157805260175,-1.3188097219424508
4.7361578719290645,-1.3007208430406056
4.738157938597953,-1.265031424492406
4.740158005266842,-1.321653585084336
4.742158071935731,-1.3555620953541612
4.74415813860462,-1.4942211466278987
4.746158205273509,-1.940566328762229
4.748158271942398,-1.1995874606118666
4.7501583386112864,-1.436590842072503
4.752158405280176,-1.4741625505369447
4.754158471949065,-1.3061733707607774
4.756158538617954,-1.3969228112268874
4.758158605286843,-1.4430181745618076
4.760158671955732,-1.4956901123621518
4.7621587386246205,-1.6055886419011811
4.764158805293509,-1.553880662220483
4.766158871962398,-1.8276095787470212
4.768158938631288,-1.193086907640695
4.770159005300177,-1.2994042165526452
4.772159071969066,-1.7810604550067188
4.7741591386379545,-1.254044950562902
4.776159205306843,-1.752313620717353
4.778159271975732,-1.027903264001486
4.780159338644621,-1.204532013470977
4.78215940531351,-1.4876599123452465
4.784159471982399,-1.4230590989996537
4.7861595386512885,-1.5382588940735988
4.788159605320177,-1.3877867949637515
4.790159671989066,-1.365535162353473
4.792159738657955,-1.4795925249702198
4.794159805326844,-1.6889127910889936
4.796159871995733,-1.4770002600281908
4.798159938664622,-1.3559286875958048
4.8001600053335105,-0.9700434361833798
4.8021600720024,-1.2513642376134482
4.804160138671289,-1.2127006659239714
4.806160205340178,-1.5631480215404907
4.808160272009067,-1.4799610742716707
4.810160338677956,-1.3507527531053245
4.8121604053468445,-1.588955099391001
4.814160472015733,-1.484962379723052
4.816160538684622,-1.4366168669500634
4.818160605353512,-1.1805286161875193
4.820160672022401,-1.5478756622645666
4.82216073869129,-1.3312016798216522
4.8241608053601785,-1.245246559614439
4.826160872029067,-1.3085297428016998
4.828160938697956,-1.3011002957107565
4.830161005366845,-1.3349218108048853
4.832161072035734,-1.4248509754090883
4.834161138704624,-1.511321853899012
4.836161205373513,-1.4016796986696631
4.838161272042401,-1.3601731533270394
4.84016133871129,-1.529344875233418
4.842161405380179,-1.2604598465160473
4.844161472049068,-1.2542628262368176
4.846161538717957,-1.320946615947994
4.848161605386846,-1.2735182085490233
4.850161672055735,-1.3279030129376233
4.852161738724624,-1.1268765991905623
4.854161805393513,-1.2546568166939818
4.856161872062402,-1.3712072210022224
4.858161938731291,-1.5017860693953113
4.86016200540018,-1.1409339976606483
4.862162072069069,-1.4562012708302938
4.864162138737957,-1.104404644204231
4.866162205406846,-0.8932734928310189
4.868162272075736,-0.9906911158864493
4.870162338744625,-1.2727728204856725
4.872162405413514,-1.2956149069830782
4.874162472082403,-1.497646801661299
4.8761625387512915,-1.0439225847827598
4.87816260542018,-1.2430080665111072
4.880162672089069,-1.324928473595046
4.882162738757958,-1.0388340333484813
4.884162805426848,-1.44823132656613
4.886162872095737,-0.9895157115082833
4.8881629387646255,-1.2508344990757725
4.890163005433514,-1.0125915533319652
4.892163072102403,-1.0850182018234344
4.894163138771292,-1.1215473254329191
4.896163205440181,-1.2560542613923351
4.89816327210907,-0.8368044243616594
4.900163338777959,-0.9150136996323923
4.902163405446848,-0.9064740727760303
4.904163472115737,-0.6756168544168624
4.906163538784626,-0.6109146986974789
4.908163605453515,-0.6027752477168278
4.910163672122404,-0.5415426112388133
4.912163738791293,-1.1486671994194362
4.9141638054601815,-1.010735413921233
4.91616387212907,-0.9897382859477251
4.91816393879796,-0.5961746234501613
4.920164005466849,-0.9017002719829782
4.922164072135738,-0.32750611116065387
4.924164138804627,-0.7871561174687183
4.9261642054735155,-0.7158703520037875
4.928164272142404,-0.7482735736248505
4.930164338811293,-0.7844961349871452
4.932164405480182,-0.7709848899341667
4.934164472149072,-0.7295302413233664
4.936164538817961,-0.5546178815253807
4.9381646054868495,-0.6744630594541684
4.940164672155738,-0.7560158708839687
4.942164738824627,-0.36117648721516726
4.944164805493516,-0.7312959338207754
4.946164872162405,-0.6547367850837376
4.948164938831294,-0.7835528670650376
4.950165005500183,-0.148916955111345
4.952165072169072,-0.18859314410747297
4.954165138837961,-0.4959671066259474
4.95616520550685,-0.5916054246562483
4.958165272175739,-0.48077114394779125
4.960165338844628,-0.33302736619218287
4.962165405513517,-0.29778176485812574
4.964165472182406,-0.13031572844701378
4.966165538851294,-0.549093209372929
4.968165605520184,-0.4753146732110356
4.970165672189073,-0.7155331630594668
4.972165738857962,-0.3426319043508244
4.974165805526851,-0.03508473752509328
4.97616587219574,0.002131033695504936
4.978165938864628,-0.3311188261079603
4.980166005533517,-0.04964207547195193
4.982166072202406,-0.4426036523461293
4.984166138871296,-0.16972518017181504
4.986166205540185,-0.3383360355266095
4.988166272209074,-0.23394770010951504
4.9901663388779625,-0.0491263563091922
4.992166405546851,-0.05223618386042119
4.99416647221574,-0.47604110717846343
4.996166538884629,-0.27600649232254487
4.998166605553518,-0.36812317222787694
5.000166672222408,0.1615405102662559
5.0021667388912965,0.2827486211146044
5.004166805560185,-0.2244770894223659
5.006166872229074,0.2720599247352689
5.008166938897963,0.052417703844116446
5.010167005566852,0.17566350090991026
5.012167072235741,0.051145761637987425
5.01416713890463,0.22525865116559263
5.0161672055735185,0.30021177941405297
5.018167272242408,0.2584683610071321
5.020167338911297,0.3040936671078891
5.022167405580186,0.07824789337126314
5.024167472249075,0.012971286325899056
5.026167538917964,0.058934835534317886
5.0281676055868525,0.23491179189141456
5.030167672255741,0.2531798133052077
5.03216773892463,0.12155761788285555
5.03416780559352,0.45952586555560637
5.036167872262409,0.43991092972522544
5.038167938931298,0.4595508743123147
5.0401680056001865,0.16478213009102521
5.042168072269075,0.5817494843022614
5.044168138937964,0.2874502029657643
5.046168205606853,0.6295448122668568
5.048168272275742,0.694957955609333
5.050168338944632,0.6570197995279613
5.0521684056135205,0.6797440413258994
5.054168472282409,0.6141862824762155
5.056168538951298,0.698731413882714
5.058168605620187,0.7709308242552807
5.060168672289076,0.531899459115956
5.062168738957965,0.7523037181797642
5.064168805626854,0.7843802601600056
5.0661688722957425,0.8923539539372352
5.068168938964632,0.6486917132685287
5.070169005633521,0.9735389537998074
5.07216907230241,0.5565792730715349
5.074169138971299,0.743643847535657
5.076169205640188,0.6821965980729374
5.0781692723090766,1.0471295604665145
5.080169338977965,0.9675591480982827
5.082169405646854,0.953660472980395
5.084169472315744,1.573143169906325
5.086169538984633,0.994826255132371
5.088169605653522,0.8485103667384766
5.090169672322411,0.9182605816573358
5.092169738991299,0.8746703932308868
5.094169805660188,1.3610652678837631
5.096169872329077,0.705530196518648
5.098169938997966,0.8637786560891642
5.100170005666856,0.9528886612661437
5.102170072335745,1.2731336335264245
5.1041701390046335,1.068835434125365
5.106170205673522,1.3454257728125925
5.108170272342411,0.9570719673299211
5.1101703390113,1.406192490869275
5.112170405680189,0.987491256662659
5.114170472349078,1.1958317323042205
5.1161705390179675,1.2321072561105382
5.118170605686856,0.9915988325799208
5.120170672355745,0.9987912964538328
5.122170739024634,1.1646928975444937
5.124170805693523,1.2823337840280353
5.126170872362412,1.2656881550647616
5.128170939031301,1.3668587324426296
5.1301710057001895,1.530524853526086
5.132171072369078,1.3464388578776945
5.134171139037968,1.4210231811449303
5.136171205706857,1.4631120292308348
5.138171272375746,1.3867988094220751
5.140171339044635,1.3049170939908272
5.1421714057135235,1.581529927501518
5.144171472382412,1.3200282533878915
5.146171539051301,1.2944395612869155
5.14817160572019,1.278796986526233
5.15017167238908,1.15867880688735
5.152171739057969,1.3220901576051838
5.1541718057268575,1.2404855552029996
5.156171872395746,1.7727993596177236
5.158171939064635,1.3219579993973256
5.160172005733524,1.58191398560589
5.162172072402413,1.6113904869048759
5.164172139071302,1.38173280731143
5.1661722057401915,1.2857680132644946
5.16817227240908,1.5258593901271427
5.170172339077969,1.8408453269560718
5.172172405746858,1.2973509669634198
5.174172472415747,1.304065135104576
5.176172539084636,1.4321623398550314
5.178172605753525,1.3202548477105294
5.1801726724224135,1.2557510266185297
5.182172739091302,1.4943350064834429
5.184172805760192,1.4081307901297615
5.186172872429081,1.3405111138090038
5.18817293909797,1.3823814492471929
5.190173005766859,1.7898309719323828
5.1921730724357475,1.8619315221116552
5.194173139104636,1.24310147136587
5.196173205773525,1.563853615778045
5.198173272442414,1.4078096495876704
5.200173339111304,1.3648672423398702
5.202173405780193,1.2803260378882595
5.204173472449082,1.3073680850933536
5.20617353911797,1.4296171446821804
5.208173605786859,1.53897774537904
5.210173672455748,1.1118841290722574
5.212173739124637,1.71679807857912
5.214173805793526,1.3958065450797532
5.216173872462416,1.5215355515793403
5.2181739391313045,1.7639938981763823
5.220174005800193,1.5642679790073402
5.222174072469082,1.5952879818816046
5.224174139137971,1.6761699695146794
5.22617420580686,1.7188782348782938
5.228174272475749,1.3871673510715867
5.230174339144638,1.5563638129823982
5.232174405813527,1.2746520494838725
5.234174472482416,1.2948427283590527
5.236174539151305,1.5204091277047924
5.238174605820194,1.4034639015132413
5.240174672489083,1.4699739281011823
5.242174739157972,1.4384212663933766
5.2441748058268605,1.616834892562903
5.246174872495749,1.0599589939292269
5.248174939164638,1.1912554160843323
5.250175005833528,1.4334754199220485
5.252175072502417,0.8652882433132282
5.254175139171306,1.4430562790024977
5.2561752058401945,0.8537986180198263
5.258175272509083,0.6043558039663052
5.260175339177972,0.9759868455818139
5.262175405846861,1.2910888084394847
5.26417547251575,1.1827783049697145
5.26617553918464,1.1849145192972548
5.2681756058535285,1.4145253795855974
5.270175672522417,1.1367905981207955
5.272175739191306,1.391828915805095
5.274175805860195,0.8733102572781706
5.276175872529084,1.2862478008842082
5.278175939197973,1.2631135658556092
5.280176005866862,1.2587935930677767
5.282176072535751,1.224446929693758
5.28417613920464,1.9062321679932124
5.286176205873529,1.0088824708766373
5.288176272542418,0.8954231330500149
5.290176339211307,1.2784094333526663
5.292176405880196,1.2177248117770425
5.2941764725490845,1.160415137876533
5.296176539217973,1.0075009461595177
5.298176605886862,1.2006926354146679
5.300176672555752,1.088744059743006
5.302176739224641,1.0309898828262296
5.30417680589353,0.792298347903521
5.3061768725624185,1.1499403379038635
5.308176939231307,0.8789263329314863
5.310177005900196,0.6532654285996866
5.312177072569085,1.023887185530597
5.314177139237974,0.9707397222210706
5.316177205906864,0.8440946071126485
5.318177272575753,0.9106863586709492
5.320177339244641,1.2668397090971977
5.32217740591353,0.8553524271266643
5.324177472582419,0.6546634605698609
5.326177539251308,1.241485565019247
5.328177605920197,1.1925542208543742
5.330177672589086,1.02621232947735
5.3321777392579754,1.0215435549498348
5.334177805926864,0.8809306002688085
5.336177872595753,0.9829410012941893
5.338177939264642,0.8376376286104178
5.340178005933531,0.7760115966901946
5.34217807260242,1.014769068177393
5.344178139271309,0.6129910052158588
5.346178205940197,1.0575740095144543
5.348178272609086,0.8164329366736408
5.350178339277976,0.685267219539841
5.352178405946865,0.8555510134731258
5.354178472615754,0.6123385408409072
5.356178539284643,0.7463088115126522
5.3581786059535315,0.7156621678567845
5.36017867262242,0.7047370076463433
5.362178739291309,0.7041599881759844
5.364178805960198,0.3192188025299905
5.366178872629088,0.7152885917241438
5.368178939297977,0.20291496368985062
5.3701790059668655,0.3086056477536718
5.372179072635754,0.7632578030973238
5.374179139304643,0.2872214820501032
5.376179205973532,0.4152206594474248
5.378179272642421,0.4531558704725885
5.38017933931131,0.6350190857046077
5.3821794059801995,0.46128748299254846
5.384179472649088,0.37537651562819585
5.386179539317977,0.5527006250641375
5.388179605986866,0.2539402762837674
5.390179672655755,0.17823888282446582
5.392179739324644,0.6230343584603402
5.394179805993533,0.16514895563158438
5.3961798726624215,-0.03247876475625805
5.398179939331311,0.15436334153179734
5.4001800060002,-0.13860465202502317
5.402180072669089,0.38106063326257644
5.404180139337978,0.06580517437292734
5.406180206006867,-0.25292530668832913
5.4081802726757555,-0.050089732276290225
5.410180339344644,0.06920465223982246
5.412180406013533,0.33330248388343153
5.414180472682422,-0.11176146284328486
5.416180539351312,-0.23381538220617729
5.418180606020201,-0.4064574365603463
5.4201806726890895,-0.020445875403226937
5.422180739357978,-0.2534520188680311
5.424180806026867,-0.425404931653289
5.426180872695756,-0.0006848514002626149
5.428180939364645,-0.0004984635769707257
5.430181006033534,0.04233352775807572
5.432181072702424,0.17298594307839932
5.434181139371312,-0.24501784721026384
5.436181206040201,-0.4834183962376718
5.43818127270909,-0.22165377816205742
5.440181339377979,0.1805217045903068
5.442181406046868,-0.2826114413904585
5.444181472715757,-0.34131020049989386
5.4461815393846456,-0.12130706156210538
5.448181606053535,-0.36498605280102614
5.450181672722424,-0.6844690295892137
5.452181739391313,-0.2461528309717433
5.454181806060202,-0.020087579890251894
5.456181872729091,-0.44329139684316965
5.45818193939798,-0.3023840138542049
5.460182006066868,-0.3926929933332559
5.462182072735757,-0.5718339546526584
5.464182139404646,-0.6483216267403925
5.466182206073536,-0.5319071864317357
5.468182272742425,-0.011385493191010454
5.470182339411314,-0.25590081878365767
5.4721824060802025,-0.4848966947384151
5.474182472749091,-0.36247698136937073
5.47618253941798,-0.743515147474781
5.478182606086869,-0.7893305275323705
5.480182672755758,-0.7568206376533124
5.482182739424648,-0.8428148329271816
5.4841828060935365,-0.33134551986318445
5.486182872762425,-0.8590467292781744
5.488182939431314,-0.6360119290278751
5.490183006100203,-0.9626468413910165
5.492183072769092,-0.719665378902592
5.494183139437981,-0.7017443136046212
5.49618320610687,-0.7346359782986315
5.498183272775759,-0.7834759042970725
5.500183339444648,-0.6878705430185875
5.502183406113537,-1.0974121762685858
5.504183472782426,-1.1261619125240057
5.506183539451315,-0.9111245194069296
5.508183606120204,-1.1610093987660894
5.5101836727890925,-1.0260410275872915
5.512183739457981,-1.3311927686220182
5.514183806126871,-1.0325012856049711
5.51618387279576,-1.0855272569029206
5.518183939464649,-0.9260868520477387
5.520184006133538,-1.178267936192109
5.5221840728024265,-0.8944612274101071
5.524184139471315,-1.1884096227880243
5.526184206140204,-0.8193956214857055
5.528184272809093,-1.1458777319274085
5.530184339477982,-1.2149716228094949
5.532184406146872,-0.9755173740008092
5.5341844728157605,-0.8899697216198146
5.536184539484649,-1.1861414523414482
5.538184606153538,-1.412595585593027
5.540184672822427,-1.0601884140959204
5.542184739491316,-1.2847748118635143
5.544184806160205,-1.2861702704229887
5.546184872829094,-0.9310657660072009
5.548184939497983,-1.3263650697749725
5.550185006166872,-1.2317332336704712
5.552185072835761,-1.451997255070376
5.55418513950465,-1.3775001088924743
5.556185206173539,-1.315685919892063
5.558185272842428,-1.3870199783940078
5.5601853395113165,-1.2403348355977994
5.562185406180205,-1.4439077672295952
5.564185472849095,-1.4882950054506199
5.566185539517984,-1.3510706662502836
5.568185606186873,-1.5857932104277335
5.570185672855762,-1.239780553679362
5.572185739524651,-1.450298280552265
5.574185806193539,-1.1831571980892799
5.576185872862428,-1.821555564138509
5.578185939531317,-1.155875417096763
5.580186006200206,-1.5325508350925017
5.582186072869096,-1.2089690042315948
5.584186139537985,-1.7041168215265086
5.5861862062068735,-1.5134841571046254
5.588186272875762,-1.6139650530146157
5.590186339544651,-1.5766044338838865
5.59218640621354,-1.4885219192688794
5.594186472882429,-1.430691423895344
5.596186539551318,-1.9300346426106105
5.5981866062202075,-1.5105670808628844
5.600186672889096,-1.5696304674652894
5.602186739557985,-1.5855924865823272
5.604186806226874,-1.3823659064266534
5.606186872895763,-1.8421107540134714
5.608186939564652,-1.3802800868640133
5.610187006233541,-1.2965766471596418
5.6121870729024295,-1.2384553829242817
5.614187139571319,-1.9749972535235023
5.616187206240208,-1.5626486188626234
5.618187272909097,-1.4791838975109814
5.620187339577986,-1.694206015059416
5.622187406246875,-1.482461670713758
5.6241874729157635,-1.585510161890876
5.626187539584652,-1.7529097488726881
5.628187606253541,-1.7804734314897264
5.630187672922431,-1.647191308542193
5.63218773959132,-1.5461643031240986
5.634187806260209,-1.4436050641090408
5.6361878729290975,-1.5119783458302538
5.638187939597986,-1.226281106595366
5.640188006266875,-1.6653124041129455
5.642188072935764,-1.1475986326342678
5.644188139604653,-1.3149239305011635
5.646188206273542,-1.1718079415429397
5.6481882729424315,-1.4188358663905654
5.65018833961132,-1.7310999647678433
5.652188406280209,-1.5547908081090749
5.654188472949098,-1.4415257223031437
5.656188539617987,-1.5535809531806042
5.658188606286876,-1.5289402541884616
5.660188672955765,-1.3586365101370639
5.6621887396246535,-1.3433066256728627
5.664188806293543,-1.679415028763327
5.666188872962432,-1.3171448576559095
5.668188939631321,-1.601857322621854
5.67018900630021,-1.4089133554830204
5.672189072969099,-1.481432589952457
5.6741891396379875,-1.0555443546499323
5.676189206306876,-1.2000914896055088
5.678189272975765,-1.3235008374829655
5.680189339644655,-1.7781706653685858
5.682189406313544,-1.2868610093066137
5.684189472982433,-1.1009172512677698
5.686189539651322,-1.7519149705535773
5.68818960632021,-1.4554803919440924
5.690189672989099,-1.3345212022370525
5.692189739657988,-1.5913581017210328
5.694189806326877,-1.3375032779142466
5.696189872995766,-0.7657618545028632
5.698189939664656,-1.4446544420348237
5.7001900063335444,-1.0243112734911777
5.702190073002433,-1.4451296189539544
5.704190139671322,-1.214712752419505
5.706190206340211,-1.211838451583244
5.7081902730091,-1.1934277634121864
5.710190339677989,-1.1701297253433296
5.712190406346878,-1.0148711714753218
5.714190473015767,-1.217298104999143
5.716190539684656,-1.0705049599993028
5.718190606353545,-0.9981124155746739
5.720190673022434,-1.2803007247618996
5.722190739691323,-1.227279300331529
5.724190806360212,-1.0964737593350062
5.7261908730291005,-1.0602865053738342
5.728190939697989,-0.89176897297066
5.730191006366879,-1.5054397090165827
5.732191073035768,-1.0901828127977666
5.734191139704657,-0.9989431370331265
5.736191206373546,-1.268095815697082
5.7381912730424345,-0.8243907989443413
5.740191339711323,-1.1183561400576245
5.742191406380212,-0.8362070669504852
5.744191473049101,-1.1908159713212576
5.74619153971799,-1.2444848635448766
5.74819160638688,-0.651903635842961
5.7501916730557685,-1.1514141488768512
5.752191739724657,-0.6172701499722233
5.754191806393546,-1.1451056141919285
5.756191873062435,-0.8809758501148456
5.758191939731324,-0.9142516938598674
5.760192006400213,-1.0184296055972275
5.762192073069102,-0.9463135095052564
5.764192139737991,-0.9845714405749489
5.76619220640688,-0.712826999033026
5.768192273075769,-1.081720854702659
5.770192339744658,-0.32038427977919937
5.772192406413547,-0.7953377468682877
5.774192473082436,-1.313989298062666
5.7761925397513245,-1.1213317152806712
5.778192606420213,-0.785303436903835
5.780192673089103,-0.35614164034550033
5.782192739757992,-0.5730623556655031
5.784192806426881,-0.5069022504407198
5.78619287309577,-0.606510765847701
5.7881929397646585,-0.9464423681343628
5.790193006433547,-0.1840951387326858
5.792193073102436,-0.16904331919031396
5.794193139771325,-0.4353790202004377
5.796193206440215,-0.33850449283642464
5.798193273109104,-0.5493501926922207
5.800193339777993,0.023501932220937993
5.802193406446881,-0.5105176764576773
5.80419347311577,-0.4198428021387578
5.806193539784659,0.055475242914758915
5.808193606453548,0.018109940504945243
5.810193673122437,-0.5861611744501163
5.812193739791326,-0.1249157283316964
5.814193806460215,-0.5336120325353186
5.816193873129104,-0.031174632990727175
5.818193939797993,-0.05460209758297273
5.820194006466882,-0.21296591238997287
5.822194073135771,-0.4012821773078772
5.82419413980466,0.20002537533033224
5.826194206473549,-0.26449560097630376
5.828194273142437,-0.15134976070555003
5.830194339811327,-0.1697986934119562
5.832194406480216,0.11762746227339813
5.834194473149105,-0.34269060827569564
5.836194539817994,-0.09690990841165657
5.838194606486883,0.43804507156814787
5.8401946731557715,-0.1414956365060739
5.84219473982466,0.11947522937165049
5.844194806493549,0.09024147404980692
5.846194873162439,0.5539414726722947
5.848194939831328,-0.09159230635063559
5.850195006500217,0.13423457549080114
5.8521950731691055,-0.09396461839452783
5.854195139837994,0.12963394060281588
5.856195206506883,0.2750729057027976
5.858195273175772,0.40045727894568744
5.860195339844661,0.6024474424340471
5.86219540651355,0.5059221652031269
5.8641954731824395,0.17338794697915466
5.866195539851328,0.2599903618147381
5.868195606520217,0.9344333831365466
5.870195673189106,0.6633189972764464
5.872195739857995,0.17723760328845212
5.874195806526884,0.7751016823826883
5.876195873195773,0.5758489521852794
5.8781959398646615,0.37850973224586526
5.880196006533551,0.4806014805954573
5.88219607320244,0.3801720086513875
5.884196139871329,0.5854563120309358
5.886196206540218,0.6247262233312719
5.888196273209107,0.6542216261053793
5.8901963398779955,0.5253311197223405
5.892196406546884,0.9393364178451409
5.894196473215773,0.2435979551207812
5.896196539884663,0.4760996553790007
5.898196606553552,0.8052793080152193
5.900196673222441,0.9320311681727518
5.9021967398913295,0.792144427532261
5.904196806560218,0.7938571335651419
5.906196873229107,0.8391701152414349
5.908196939897996,1.0610651553095245
5.910197006566885,0.33377846388743754
5.912197073235775,1.082933295792171
5.914197139904664,0.7282839222597769
5.916197206573552,1.1369140288436765
5.918197273242441,1.1161825839669304
5.92019733991133,1.107234620738192
5.922197406580219,0.908220838731508
5.924197473249108,0.8554973361631132
5.926197539917997,1.1640282566950002
5.9281976065868855,0.9167839236115016
5.930197673255775,1.2541389164467898
5.932197739924664,0.9545092151148179
5.934197806593553,0.9742073391045857
5.936197873262442,1.2153767586812694
5.938197939931331,1.112374941634183
5.94019800660022,1.045042704306106
5.942198073269108,0.8701534613185986
5.944198139937997,1.109375790591627
5.946198206606887,1.248230963551372
5.948198273275776,0.8504473817878984
5.950198339944665,1.3440882978950082
5.952198406613554,0.7794209805816672
5.9541984732824424,0.9367384283518307
5.956198539951331,1.313038003624601
5.95819860662022,0.8706783152814224
5.960198673289109,1.0385074964778283
5.962198739957999,1.553618894177329
5.964198806626888,1.3155854590609963
5.9661988732957765,1.613855651803645
5.968198939964665,1.5392870599043504
5.970199006633554,1.238362884079703
5.972199073302443,1.5306091991879387
5.974199139971332,1.2664376126867603
5.976199206640221,1.3017353863079146
5.97819927330911,1.0386421289421837
5.980199339977999,1.4926565922976984
5.982199406646888,1.3035124788691559
5.984199473315777,1.7535253626043363
5.986199539984666,1.2954420234381352
5.988199606653555,1.013079463732404
5.990199673322444,1.1828665530703812
5.9921997399913325,1.5491404054687798
5.994199806660221,1.4123891668088495
5.996199873329111,1.3234625186469748
5.998199939998,1.730479134719952
6.000200006666889,1.462532981388625
6.002200073335778,1.5475378175814172
6.0042001400046665,1.2572893683763706
6.006200206673555,1.7481463732670037
6.008200273342444,1.521069694208275
6.010200340011333,1.363240832441258
6.012200406680223,1.3170944681409888
6.014200473349112,1.4700025375705164
6.0162005400180005,1.266668898679594
6.018200606686889,1.3854713884830452
6.020200673355778,1.4897666153089462
6.022200740024667,1.7274131043524086
6.024200806693556,1.560340260015919
6.026200873362445,1.4382112319209484
6.0282009400313346,1.4776352179456584
6.030201006700223,1.4200837887328384
6.032201073369112,1.6416509384023128
6.034201140038001,1.7333802792863748
6.03620120670689,1.0781146904171346
6.038201273375779,1.5589365132389388
6.040201340044668,1.6008969551260597
6.0422014067135565,1.5842560972946542
6.044201473382445,1.7221399868656047
6.046201540051335,1.538986520741885
6.048201606720224,1.101168454601464
6.050201673389113,1.3282444200296137
6.052201740058002,1.7398011829112505
6.054201806726891,1.819716940611728
6.056201873395779,1.5721274223760564
6.058201940064668,1.9681795589259539
6.060202006733557,1.5635831590585836
6.062202073402447,1.4356108593482242
6.064202140071336,1.5975139717524032
6.066202206740225,0.9431464985889567
6.0682022734091134,1.4560426769100903
6.070202340078002,1.6361455465867558
6.072202406746891,1.2765522040675308
6.07420247341578,1.3884470557965698
6.076202540084669,1.7665890522901229
6.078202606753559,1.5334463377828669
6.0802026734224475,1.4166014416417656
6.082202740091336,1.636083786302227
6.084202806760225,1.4926190196062792
6.086202873429114,1.169474989632627
6.088202940098003,1.3500315963150995
6.090203006766892,1.509282329881021
6.092203073435781,1.7510147072567812
6.0942031401046695,1.089508068602596
6.096203206773559,1.7047417109022118
6.098203273442448,1.2946465053293523
6.100203340111337,1.4301334970339454
6.102203406780226,1.3469207408079182
6.104203473449115,1.6568732891345188
6.1062035401180035,1.3980290161182516
6.108203606786892,1.4085703741425997
6.110203673455781,1.4485888105733769
6.112203740124671,1.3221183151845068
6.11420380679356,1.1571542419610394
6.116203873462449,1.0455619626652815
6.1182039401313375,0.93662673067831
6.120204006800226,1.3220990079260435
6.122204073469115,1.11262506471751
6.124204140138004,0.979896361689589
6.126204206806893,1.0203073722678986
6.128204273475783,0.7250500496296692
6.1302043401446715,1.1027264226074915
6.13220440681356,1.3103657177936214
6.134204473482449,0.8727978106975114
6.136204540151338,1.5715395264878789
6.138204606820227,1.0849949377125239
6.140204673489116,1.4568124977740746
6.142204740158005,1.1052388512572815
6.1442048068268935,1.314924853331963
6.146204873495783,0.7992359141528509
6.148204940164672,1.1287461898828304
6.150205006833561,1.2080810820536874
6.15220507350245,1.2094903755036301
6.154205140171339,0.5779391237251834
6.1562052068402275,1.286990050770402
6.158205273509116,1.0611073015604933
6.160205340178005,1.135096829411456
6.162205406846895,0.51727450266349
6.164205473515784,1.060572925791516
6.166205540184673,1.133982695652868
6.168205606853562,1.0872699177264515
6.17020567352245,0.9474292990976458
6.172205740191339,0.5750653246762278
6.174205806860228,1.0213441391855642
6.176205873529117,0.7409202149795373
6.178205940198007,0.6003492614366002
6.180206006866896,0.592894872032177
6.182206073535784,0.6703777743015716
6.184206140204673,1.086053485636667
6.186206206873562,0.3506069033640487
6.188206273542451,0.7537369247255936
6.19020634021134,0.44816835033559266
6.192206406880229,0.8073990836644154
6.1942064735491185,0.4427093595744377
6.196206540218007,0.8754279905302755
6.198206606886896,0.5290162128797876
6.200206673555785,0.44617766761245836
6.202206740224674,0.7631818877352395
6.204206806893563,0.7358815132942406
6.206206873562452,0.8185436771821482
6.2082069402313405,0.39793675163559383
6.210207006900229,0.43628505311718274
6.212207073569119,0.20301493226074907
6.214207140238008,0.6664209719448151
6.216207206906897,0.757752940507377
6.218207273575786,0.5899548424938692
6.2202073402446745,0.38937601968985025
6.222207406913563,0.17123785048996765
6.224207473582452,0.4621084447589143
6.226207540251341,0.2974237124754481
6.228207606920231,0.275026756299956
6.23020767358912,0.20771708008920708
6.2322077402580085,0.30684624645332975
6.234207806926897,0.03485536874161546
6.236207873595786,-0.29802888103453395
6.238207940264675,0.41193535281686267
6.240208006933564,-0.06494713128079745
6.242208073602453,0.2782759880496348
6.2442081402713425,-0.2078737639366732
6.246208206940231,0.13839483740793368
6.24820827360912,-0.13406323804545822
6.250208340278009,0.27043206408463677
6.252208406946898,0.09122410105102402
6.254208473615787,0.04805233826692304
6.256208540284676,0.07535525021324312
6.2582086069535645,0.10642948051629675
6.260208673622453,-0.08306000957877181
6.262208740291343,-0.3210331975451085
6.264208806960232,-0.6428692643637692
6.266208873629121,-0.3733607076451162
6.26820894029801,0.07976170264302851
6.2702090069668985,-0.1214657643053728
6.272209073635787,-0.11584783241738
6.274209140304676,-0.5710307575086715
6.276209206973565,-0.11483510867796276
6.278209273642455,-0.452972099725928
6.280209340311344,-0.46037241432234155
6.282209406980233,-0.45813234776299183
6.284209473649121,-0.14122001629718317
6.28620954031801,-0.3838823975081999
6.288209606986899,-0.6016595397170705
6.290209673655788,-0.38863173666928436
6.292209740324677,-0.43244004835220834
6.294209806993567,-0.49672733260019214
6.296209873662455,-0.7739303845732447
6.298209940331344,-0.702928276755165
6.300210007000233,-0.46778578947100513
6.302210073669122,-0.07239037244973756
6.304210140338011,-0.46731565704443256
6.3062102070069,-0.7980014375000843
6.308210273675789,-0.4467811150395937
6.310210340344678,-0.616814690790705
6.312210407013567,-0.4590554600583008
6.314210473682456,-0.5488770672660849
6.316210540351345,-0.6159870822942606
6.318210607020234,-0.9838424770417274
6.320210673689123,-0.64537479341307
