time,lead1
0.0,0.024461759418523157
0.002000066668888963,-0.0867491640166305
0.004000133337777926,0.49407838743618143
0.006000200006666888,-0.24906823648497417
0.008000266675555852,-0.04511481458349775
0.010000333344444815,0.15734565083291568
0.012000400013333776,0.10832247596110439
0.01400046668222274,0.3930768056684725
0.016000533351111703,-0.05858108714487076
0.018000600020000666,0.5763789476189456
0.02000066668888963,0.5889862589070685
0.022000733357778593,0.42705586554259345
0.024000800026667553,0.22614301380162904
0.026000866695556516,0.048619866618881014
0.02800093336444548,0.5777849263862758
0.030001000033334443,0.21123940469443384
0.032001066702223406,0.3775776072671852
0.034001133371112366,0.37253467371319116
0.03600120004000133,0.07737408856241168
0.03800126670889029,0.45574249147137136
0.04000133337777926,0.5542345621336782
0.04200140004666822,0.1944729508462772
0.044001466715557186,0.6506654637928655
0.046001533384446146,0.8129529522806922
0.048001600053335106,0.6735295968592248
0.05000166672222407,0.38794684541597424
0.05200173339111303,0.26168185299513885
0.054001800060002,0.7118239458837247
0.05600186672889096,0.16472932804495072
0.058001933397779926,0.8068391949814117
0.060002000066668885,0.5432343206934876
0.06200206673555785,0.4445294989677236
0.06400213340444681,0.6500128810551489
0.06600220007333578,0.40377708776999727
0.06800226674222473,0.8188721669222061
0.0700023334111137,0.9163407058441513
0.07200240008000267,0.5735608279381288
0.07400246674889163,0.8825908008237584
0.07600253341778059,1.0198032838902855
0.07800260008666955,0.7170866728640011
0.08000266675555852,0.895798161840569
0.08200273342444747,0.7594427158029136
0.08400280009333644,0.965934181868986
0.0860028667622254,0.8726008757643524
0.08800293343111437,0.6886709180727799
0.09000300010000332,0.4572306034547603
0.09200306676889229,1.044651432630783
0.09400313343778126,1.1477214110533165
0.09600320010667021,1.0243093148900422
0.09800326677555918,0.8690121686708334
0.10000333344444814,0.6870909398068976
0.10200340011333711,0.9302667385986235
0.10400346678222606,1.3280654424763567
0.10600353345111503,0.9100309025913769
0.108003600120004,0.8265912071271422
0.11000366678889296,1.4738886936785822
0.11200373345778192,1.2158415730689311
0.11400380012667088,1.2859648510408976
0.11600386679555985,1.1728820032883929
0.1180039334644488,0.7229476997423683
0.12000400013333777,1.2481039600493147
0.12200406680222674,1.2249895456996476
0.1240041334711157,1.1994462752317159
0.12600420014000466,0.9034924463016312
0.12800426680889362,1.1651140116050513
0.1300043334777826,0.9689699756035831
0.13200440014667156,1.4355116479970538
0.13400446681556052,1.4360920385377172
0.13600453348444946,1.1591587047216585
0.13800460015333843,1.2304508940581766
0.1400046668222274,1.190298159725243
0.14200473349111636,1.4353726631104005
0.14400480016000533,1.440064395471466
0.1460048668288943,1.4079923133053631
0.14800493349778326,1.2925243281869454
0.1500050001666722,1.1260017416132666
0.15200506683556117,0.9116769241776377
0.15400513350445014,1.3437405669716826
0.1560052001733391,1.5007947944060882
0.15800526684222807,1.4971113598851118
0.16000533351111704,1.4385350210100796
0.162005400180006,1.3829001783570882
0.16400546684889494,1.5193890442844373
0.1660055335177839,1.3398354698360264
0.16800560018667288,1.5390515830152174
0.17000566685556184,1.484372274955119
0.1720057335244508,1.3739629382667609
0.17400580019333978,1.6036037794191804
0.17600586686222874,1.5806034863197347
0.17800593353111768,1.3489262244182334
0.18000600020000665,1.6119400442682665
0.18200606686889562,1.3450301552874766
0.18400613353778458,1.378191454503913
0.18600620020667355,1.2199898035674543
0.18800626687556252,1.6875330583049377
0.19000633354445148,1.3005161756130188
0.19200640021334042,1.569961626331197
0.1940064668822294,1.5652922615671
0.19600653355111836,1.531225026238791
0.19800660022000732,1.4651914169877143
0.2000066668888963,1.063441059181464
0.20200673355778526,1.738588154510601
0.20400680022667422,1.5850804709916024
0.2060068668955632,1.263749817546697
0.20800693356445213,1.8461336420423162
0.2100070002333411,1.4397651391604158
0.21200706690223006,1.5304030126072516
0.21400713357111903,1.1702345872420894
0.216007200240008,1.25664928712744
0.21800726690889696,1.5559512345286137
0.22000733357778593,1.2278546669793913
0.22200740024667487,1.4621394146109814
0.22400746691556384,1.5586360845225733
0.2260075335844528,1.451631390540529
0.22800760025334177,1.5590241800990285
0.23000766692223074,1.7607126604170744
0.2320077335911197,1.506652628176585
0.23400780026000867,1.1666125749681593
0.2360078669288976,1.5167531745709621
0.23800793359778658,1.4771189761370027
0.24000800026667554,1.340624014334009
0.2420080669355645,1.8159104196563787
0.24400813360445348,1.6567722273499879
0.24600820027334244,1.5680654944393322
0.2480082669422314,1.2219926607216804
0.25000833361112035,1.4553007458546183
0.2520084002800093,1.3173684942734318
0.2540084669488983,1.1219379587043
0.25600853361778725,1.1238554124443438
0.2580086002866762,1.3537285697244044
0.2600086669555652,1.2420272978878035
0.26200873362445415,1.696685635259747
0.2640088002933431,1.4723191925321255
0.2660088669622321,1.2066307589994136
0.26800893363112105,1.6299028573338388
0.27000900030001,1.553128842364392
0.2720090669688989,1.0098232987721953
0.2740091336377879,1.2735311645453629
0.27600920030667686,1.4762859649095432
0.2780092669755658,1.6578382984122064
0.2800093336444548,1.0897222896966328
0.28200940031334376,1.0940548054088222
0.28400946698223273,1.1594011187170696
0.2860095336511217,0.9656549902311475
0.28800960032001066,0.7214737415386479
0.29000966698889963,1.1312210624507262
0.2920097336577886,0.8943922623987248
0.29400980032667756,1.2832410364518512
0.29600986699556653,1.2156504178149274
0.2980099336644555,1.0633130920487184
0.3000100003333444,1.3485959858251053
0.3020100670022334,1.4415895807694903
0.30401013367112234,1.2910406332972468
0.3060102003400113,1.0026553073841593
0.3080102670089003,1.0507555733688474
0.31001033367778924,0.4215797191584978
0.3120104003466782,0.9214394762676484
0.3140104670155672,1.2809196109129153
0.31601053368445614,0.9771651780609568
0.3180106003533451,0.9563864994773572
0.3200106670222341,1.0038736001596595
0.32201073369112304,0.8807573729763396
0.324010800360012,0.9922740108303885
0.326010867028901,0.9853407321138058
0.3280109336977899,0.9950095411276138
0.33001100036667885,0.49078543449567813
0.3320110670355678,0.8273372001826171
0.3340111337044568,0.7637980041601812
0.33601120037334575,0.7542851081900341
0.3380112670422347,1.0680672226612569
0.3400113337111237,0.5343771852416349
0.34201140038001265,0.9275329782947366
0.3440114670489016,0.9490419891693149
0.3460115337177906,1.294230403402036
0.34801160038667955,0.9164048516703143
0.3500116670555685,0.9129903268112949
0.3520117337244575,0.7621963661539015
0.35401180039334645,0.9163508558963358
0.35601186706223537,1.1158389848774108
0.35801193373112433,0.6557899262208916
0.3600120004000133,0.444575045306167
0.36201206706890227,0.5817818649254417
0.36401213373779123,0.6240143311821897
0.3660122004066802,0.6982922759592056
0.36801226707556917,0.22049043840454902
0.37001233374445813,0.2949781262970187
0.3720124004133471,0.19848455846873758
0.37401246708223607,0.6485268187699602
0.37601253375112503,0.5960353394494531
0.378012600420014,0.5221478583730934
0.38001266708890297,0.6461820129687241
0.38201273375779193,0.515562583174745
0.38401280042668084,0.25208630174019064
0.3860128670955698,0.24114836034700943
0.3880129337644588,0.09794626953071223
0.39001300043334775,0.2057682854632941
0.3920130671022367,0.5325104857854371
0.3940131337711257,0.38114029652732906
0.39601320044001465,0.06749126728896906
0.3980132671089036,0.3972480128555259
0.4000133337777926,-0.012269910783905658
0.40201340044668155,0.4037575224668169
0.4040134671155705,0.19239529624861734
0.4060135337844595,0.16217498804871905
0.40801360045334845,0.1147192449101318
0.4100136671222374,0.4441483702993351
0.4120137337911264,-0.05594687301373423
0.4140138004600153,-0.03289278565390727
0.41601386712890426,0.026087510108378172
0.4180139337977932,0.12069922226994767
0.4200140004666822,0.012784048396650816
0.42201406713557116,-0.2185281811899491
0.4240141338044601,-0.19335250604108212
0.4260142004733491,0.1412570799384907
0.42801426714223806,0.02044542864384738
0.430014333811127,0.041356926911182756
0.432014400480016,-0.41135900939955844
0.43401446714890496,-0.2332112226355953
0.4360145338177939,-0.5913292245529638
0.4380146004866829,-0.16627255530405644
0.44001466715557186,-0.2523014957930652
0.44201473382446077,-0.09747256506543953
0.44401480049334974,-0.199724495828769
0.4460148671622387,-0.1871486005826596
0.44801493383112767,-0.23898519582860434
0.45001500050001664,-0.30866709201327314
0.4520150671689056,-0.3660507534813863
0.45401513383779457,-0.46345334014870987
0.45601520050668354,-0.7747572378183801
0.4580152671755725,-0.625971130903878
0.46001533384446147,-0.3954426297788599
0.46201540051335044,-0.6612490716940866
0.4640154671822394,-0.5735912864638382
0.46601553385112837,-0.5831587026465332
0.46801560052001734,-0.1545149707330598
0.47001566718890625,-0.5803777072881585
0.4720157338577952,-0.8485230165572137
0.4740158005266842,-0.9406907142085131
0.47601586719557315,-0.7213425064731828
0.4780159338644621,-0.4570939762836242
0.4800160005333511,-0.5735228950072837
0.48201606720224005,-0.4162798764301977
0.484016133871129,-1.0042174765202463
0.486016200540018,-0.8185288151336448
0.48801626720890695,-0.6945819399213364
0.4900163338777959,-0.41549511822698126
0.4920164005466849,-0.9463348451266034
0.49401646721557385,-0.915796509918717
0.4960165338844628,-0.9641568443845043
0.49801660055335173,-0.9450376945143147
0.5000166672222407,-0.9232320381751213
0.5020167338911297,-1.1640869753619203
0.5040168005600186,-0.910559875833811
0.5060168672289076,-0.7733824421124336
0.5080169338977966,-0.9740867982666314
0.5100170005666855,-0.7886577234000403
0.5120170672355745,-1.1502613163465183
0.5140171339044635,-1.0360132184770148
0.5160172005733524,-1.1690776592432601
0.5180172672422414,-1.238811149575146
0.5200173339111304,-1.1322008628714806
0.5220174005800193,-1.0019711721481237
0.5240174672489083,-0.7167003328834258
0.5260175339177973,-0.8338422641048788
0.5280176005866862,-1.197956874665174
0.5300176672555752,-1.096717573226476
0.5320177339244642,-0.8966621823738096
0.5340178005933531,-1.0837787887045462
0.5360178672622421,-1.2881762256546359
0.5380179339311311,-0.8044885008845788
0.54001800060002,-0.8819003549928184
0.5420180672689089,-1.3792226077188674
0.5440181339377979,-1.4665648582834183
0.5460182006066868,-0.9408851003519225
0.5480182672755758,-1.3806284222926568
0.5500183339444648,-1.3691338430717173
0.5520184006133537,-1.5707202508205709
0.5540184672822427,-1.4500588165413841
0.5560185339511317,-1.3705341657275234
0.5580186006200206,-0.9981953001411473
0.5600186672889096,-1.4217585073989802
0.5620187339577986,-1.1886370946993536
0.5640188006266875,-1.3245658967218796
0.5660188672955765,-1.2530222619420663
0.5680189339644655,-1.3197329336233927
0.5700190006333544,-0.8630777930613149
0.5720190673022434,-1.2933954496695825
0.5740191339711324,-1.36144623988899
0.5760192006400213,-1.2506616128274604
0.5780192673089103,-1.5931284819490572
0.5800193339777993,-1.4525875925608582
0.5820194006466882,-1.5988803996061716
0.5840194673155772,-1.601083675764226
0.5860195339844662,-1.288519688660614
0.5880196006533551,-1.3048813221960494
0.5900196673222441,-1.8212138854738067
0.5920197339911331,-1.580391320859114
0.594019800660022,-1.6314383296690353
0.596019867328911,-1.0430824425451557
0.5980199339977998,-1.7048321123658707
0.6000200006666888,-1.5530387046701912
0.6020200673355778,-1.4802789603201472
0.6040201340044667,-1.3569149559588953
0.6060202006733557,-1.8059122051968877
0.6080202673422447,-1.6655521814084477
0.6100203340111336,-1.5296612005879706
0.6120204006800226,-1.448943107344013
0.6140204673489116,-1.3344948579987563
0.6160205340178005,-1.3451620326628446
0.6180206006866895,-1.6866133444124516
0.6200206673555785,-1.6401079365286257
0.6220207340244674,-1.5380224262686895
0.6240208006933564,-1.40029020796912
0.6260208673622454,-1.724159649589661
0.6280209340311343,-1.4407745297414927
0.6300210007000233,-1.2618503814062758
0.6320210673689123,-1.7201856696990618
0.6340211340378012,-1.5510089860905294
0.6360212007066902,-1.3690603583256364
0.6380212673755792,-1.430403165316914
0.6400213340444681,-1.649671905713949
0.6420214007133571,-1.55582639504974
0.6440214673822461,-1.330202245866206
0.646021534051135,-1.6886037866055315
0.648021600720024,-1.8879002769303115
0.650021667388913,-1.2923513669069837
0.652021734057802,-1.4054710674373536
0.6540218007266909,-1.437050404995736
0.6560218673955798,-1.396397422970346
0.6580219340644687,-1.2047562001869832
0.6600220007333577,-1.6096680034172492
0.6620220674022467,-1.098192858163649
0.6640221340711356,-1.6779509497731135
0.6660222007400246,-1.4383272861708478
0.6680222674089136,-1.2990682471743087
0.6700223340778025,-1.2877213618145122
0.6720224007466915,-1.3386937038027629
0.6740224674155805,-1.3009473488844372
0.6760225340844694,-1.4236154974125235
0.6780226007533584,-1.2329211869000094
0.6800226674222474,-1.7045595421739117
0.6820227340911363,-1.5611075259335663
0.6840228007600253,-1.394827977610527
0.6860228674289143,-1.5421040606675742
0.6880229340978032,-1.3126163546451384
0.6900230007666922,-1.193501342862256
0.6920230674355812,-1.1796506287112118
0.6940231341044701,-1.1784457116257687
0.6960232007733591,-1.4243878653945419
0.6980232674422481,-1.4755328772203182
0.700023334111137,-1.1178441962885195
0.702023400780026,-1.337869436337414
0.704023467448915,-1.1578197013684308
0.7060235341178039,-1.1705339175140033
0.7080236007866929,-1.1913334841282244
0.7100236674555819,-0.88253205026171
0.7120237341244707,-0.9871852981832133
0.7140238007933597,-1.042563084429953
0.7160238674622487,-1.237722094057977
0.7180239341311376,-0.8533956742471456
0.7200240008000266,-1.1543463528960594
0.7220240674689156,-1.5217052516996126
0.7240241341378045,-1.1806679046736364
0.7260242008066935,-1.2960054020586202
0.7280242674755825,-1.206966122461273
0.7300243341444714,-0.9404128647454172
0.7320244008133604,-1.2190476799727197
0.7340244674822494,-1.2348125578027584
0.7360245341511383,-1.1315590409962315
0.7380246008200273,-0.7323608907773498
0.7400246674889163,-0.8366777270580762
0.7420247341578052,-0.7760205941453414
0.7440248008266942,-0.9560217153931666
0.7460248674955832,-1.5936635719295968
0.7480249341644721,-1.1467246559587831
0.7500250008333611,-0.6128572330729751
0.7520250675022501,-0.9462359498069862
0.754025134171139,-0.7446414365407708
0.756025200840028,-0.9930269522667571
0.758025267508917,-0.5541470172608705
0.7600253341778059,-0.4189875032306474
0.7620254008466949,-1.0535882151860023
0.7640254675155839,-0.4552668211475873
0.7660255341844728,-0.6240705764773713
0.7680256008533617,-0.830150533352398
0.7700256675222507,-0.7774544750732352
0.7720257341911396,-0.7334308233948172
0.7740258008600286,-0.8719727619502095
0.7760258675289176,-0.5762669300303135
0.7780259341978065,-0.530238660184856
0.7800260008666955,-0.6334236107646405
0.7820260675355845,-0.5873302942108377
0.7840261342044734,-0.9167605797853696
0.7860262008733624,-0.5019783847074045
0.7880262675422514,-0.22505297582292222
0.7900263342111403,-0.4969744724448313
0.7920264008800293,-0.9512300090986451
0.7940264675489183,-0.5395215361291527
0.7960265342178072,-0.22563728437234337
0.7980266008866962,-0.3507197837257232
0.8000266675555852,-0.3275515924534436
0.8020267342244741,-0.6030374028257429
0.8040268008933631,-0.02267255065942486
0.8060268675622521,-0.40175551161622214
0.808026934231141,-0.3636638386213253
0.81002700090003,-0.27859494990875083
0.812027067568919,-0.28086577712208616
0.8140271342378079,-0.20500262885736967
0.8160272009066969,0.09755355702962337
0.8180272675755859,0.0003014945177268191
0.8200273342444748,0.03403882921424212
0.8220274009133638,-0.11464798931916688
0.8240274675822528,-0.14198021457860743
0.8260275342511416,0.11628334152044047
0.8280276009200306,-0.19010803142718474
0.8300276675889195,-0.13746566417324713
0.8320277342578085,0.19802625721212141
0.8340278009266975,0.12727258344926326
0.8360278675955864,0.005829759710345859
0.8380279342644754,-0.10779476477811496
0.8400280009333644,-0.16640974508088402
0.8420280676022533,0.2585192368661089
0.8440281342711423,0.04445479725806149
0.8460282009400313,-0.0033222861830266293
0.8480282676089202,0.3872028272286458
0.8500283342778092,-0.0693523787094395
0.8520284009466982,0.5884929384033383
0.8540284676155872,0.17915574886948085
0.8560285342844761,0.39148898774707486
0.8580286009533651,0.14982590508717752
0.860028667622254,0.343803279350015
0.862028734291143,0.23190633195165866
0.864028800960032,0.40091687442321355
0.866028867628921,0.5023815303556508
0.8680289342978099,0.6718798302580288
0.8700290009666989,0.5451229744568603
0.8720290676355879,0.41463579602149575
0.8740291343044768,0.574754443057295
0.8760292009733658,0.5429984988258928
0.8780292676422548,0.8241240925586656
0.8800293343111437,0.790003174161145
0.8820294009800326,0.5743227103545704
0.8840294676489215,0.7221381176138206
0.8860295343178105,0.5403003879260283
0.8880296009866995,0.7911753561817948
0.8900296676555884,0.9666498450272795
0.8920297343244774,0.6795425741190106
0.8940298009933664,0.33451725842354574
0.8960298676622553,0.6677540334396352
0.8980299343311443,0.7770359127578976
0.9000300010000333,0.8210602108641527
0.9020300676689222,0.7878872475058305
0.9040301343378112,0.5171538997658767
0.9060302010067002,0.9459761448521897
0.9080302676755891,1.0616561864475107
0.9100303343444781,0.8809636234115992
0.9120304010133671,0.748324268699911
0.914030467682256,0.8288665873049512
0.916030534351145,1.0298924100587403
0.918030601020034,0.8945152325937378
0.9200306676889229,1.0182817486381552
0.9220307343578119,1.07724906087322
0.9240308010267009,1.1899854461154526
0.9260308676955898,0.7945450137050073
0.9280309343644788,0.8393208118887566
0.9300310010333678,0.7263373419373937
0.9320310677022567,1.0709760844778287
0.9340311343711457,1.0357834649531683
0.9360312010400347,0.9874631023518494
0.9380312677089236,1.2838435388515412
0.9400313343778125,1.1438035185495437
0.9420314010467015,1.3732343117945058
0.9440314677155904,0.977603216759575
0.9460315343844794,1.2447916408625255
0.9480316010533684,1.0418912520616352
0.9500316677222573,1.1577671409277084
0.9520317343911463,1.0360175003089762
0.9540318010600353,1.1177324206341912
0.9560318677289242,1.008111807822032
0.9580319343978132,1.2135341128369102
0.9600320010667022,1.0238455809273046
0.9620320677355911,1.2023918219967193
0.9640321344044801,1.1901032321293668
0.9660322010733691,1.043416013224237
0.968032267742258,1.5635533817041896
0.970032334411147,1.5061936865473227
0.972032401080036,1.5100063915450725
0.9740324677489249,1.5224812989238359
0.9760325344178139,0.8799545224348342
0.9780326010867029,1.5511123995158829
0.9800326677555918,1.4495993153855677
0.9820327344244808,1.241892419935955
0.9840328010933698,1.5463644834766905
0.9860328677622587,1.4029526973961735
0.9880329344311477,1.3452787895698557
0.9900330011000367,1.3816156709830931
0.9920330677689256,1.1409896831680109
0.9940331344378146,1.279339252877667
0.9960332011067035,1.6774795122871953
0.9980332677755924,1.5606640767042057
1.0000333344444814,1.337194114620896
1.0020334011133705,1.677602019751645
1.0040334677822593,1.641590720836166
1.0060335344511484,1.558322807948147
1.0080336011200373,1.8110366782956113
1.0100336677889263,1.6760222936986053
1.0120337344578152,1.2068312568301922
1.0140338011267043,1.7126823919414655
1.0160338677955931,1.4168816411216683
1.0180339344644822,1.372634016490572
1.020034001133371,1.3385869684020135
1.0220340678022601,1.3974106871598575
1.024034134471149,1.5160019509477949
1.0260342011400378,1.4664972694182088
1.028034267808927,1.4931980926123267
1.0300343344778158,1.2809723385001064
1.0320344011467049,1.6368470894006972
1.0340344678155937,1.5418873350587199
1.0360345344844828,1.4583696206813164
1.0380346011533716,1.6840495288062987
1.0400346678222607,1.5613347200184544
1.0420347344911496,1.2981928959403461
1.0440348011600387,1.61519228719026
1.0460348678289275,1.47687290254841
1.0480349344978166,1.533461802185248
1.0500350011667055,1.242083366084533
1.0520350678355945,1.4551305100132688
1.0540351345044834,1.8265758174290678
1.0560352011733725,1.4109665335177337
1.0580352678422613,1.501928118920574
1.0600353345111504,1.603869167552788
1.0620354011800393,1.2597698719452817
1.0640354678489283,1.544944423494973
1.0660355345178172,1.482320587566434
1.0680356011867063,1.5608612753781401
1.0700356678555951,1.3752105009720583
1.0720357345244842,1.3139979736101384
1.074035801193373,1.3926891872050924
1.0760358678622621,1.2926749989726543
1.078035934531151,1.494731668859411
1.08003600120004,1.5467013656349113
1.082036067868929,1.0848498161371334
1.0840361345378178,1.074614043711171
1.0860362012067069,1.2784683219092574
1.0880362678755957,1.3217406201984194
1.0900363345444848,1.48168876839054
1.0920364012133736,1.1898093766674984
1.0940364678822627,1.1741131340252888
1.0960365345511516,1.134758757970207
1.0980366012200407,1.1786200791153059
1.1000366678889295,1.213963111730938
1.1020367345578186,1.4682962747284314
1.1040368012267074,1.493520904088897
1.1060368678955965,1.5886603538783688
1.1080369345644854,1.297071417752494
1.1100370012333745,1.4264830355236724
1.1120370679022633,1.1363198535423584
1.1140371345711524,1.4394188574857023
1.1160372012400412,1.4759061281821033
1.1180372679089303,1.0301092816107453
1.1200373345778192,0.8347443929817593
1.1220374012467083,1.1570052304008984
1.124037467915597,1.2209181301098146
1.1260375345844862,1.2536694873360572
1.128037601253375,0.8468964049910261
1.1300376679222641,1.223398810415487
1.132037734591153,1.4558780839631456
1.134037801260042,1.3557044041747974
1.136037867928931,1.2262442317541746
1.1380379345978198,1.2223239157697228
1.1400380012667088,1.1460167924658717
1.1420380679355977,0.8582964770601537
1.1440381346044868,0.8904713089484313
1.1460382012733756,1.2322862945797821
1.1480382679422647,1.00019282974852
1.1500383346111536,1.002924926173068
1.1520384012800426,0.8235535093175377
1.1540384679489315,0.9595211733258245
1.1560385346178206,1.283182477988305
1.1580386012867094,0.9175431663047459
1.1600386679555985,1.0333874064874318
1.1620387346244874,0.9670289676699169
1.1640388012933764,0.8318711466862607
1.1660388679622653,0.33364431891210755
1.1680389346311544,0.5799432325427186
1.1700390013000432,0.9138572824197161
1.1720390679689323,0.8348170232101887
1.1740391346378212,0.9717151717438224
1.1760392013067102,0.729740084745489
1.178039267975599,1.0214323585426701
1.1800393346444882,0.39874881964782094
1.182039401313377,0.8770397389269999
1.1840394679822661,1.1445941998084885
1.186039534651155,0.3889804028359933
1.188039601320044,0.5418070627593303
1.190039667988933,0.6157511602957592
1.192039734657822,0.590987010735009
1.1940398013267108,0.19326385370240146
1.1960398679955997,1.012363920339335
1.1980399346644888,-0.0032966643022918074
1.2000400013333776,0.38193073392746224
1.2020400680022667,0.388173263512033
1.2040401346711556,0.728328356234129
1.2060402013400446,0.5339871338569304
1.2080402680089335,0.6127558427796719
1.2100403346778226,0.3960427915682864
1.2120404013467114,0.5385727192425643
1.2140404680156005,0.5441187358169559
1.2160405346844894,0.49770313148733564
1.2180406013533784,0.1917973169058523
1.2200406680222673,0.449377717033244
1.2220407346911564,0.3293569814856469
1.2240408013600452,0.23949113458725846
1.2260408680289343,0.3065566340829471
1.2280409346978232,0.6902074698764177
1.2300410013667122,0.16727691639565045
1.232041068035601,0.1308795526419746
1.2340411347044902,0.3929588027585785
1.236041201373379,-0.2810858085475236
1.238041268042268,0.18046976327900074
1.240041334711157,0.2177702451393417
1.242041401380046,0.12662985220578477
1.244041468048935,0.050401541691613
1.246041534717824,-0.1728134058536398
1.2480416013867128,0.04411426380406884
1.250041668055602,-0.13666169809563944
1.2520417347244908,-0.0818992451621808
1.2540418013933796,-0.34449371856720423
1.2560418680622687,-0.22173477888105628
1.2580419347311576,0.23508114881732825
1.2600420014000466,-0.36368405235054396
1.2620420680689355,-0.09630453875848138
1.2640421347378246,-0.08023984433452118
1.2660422014067134,0.18933007535470994
1.2680422680756025,-0.34836504934962353
1.2700423347444914,-0.11190180166909014
1.2720424014133804,-0.3400361315077965
1.2740424680822693,-0.5012017390997132
1.2760425347511584,-0.38053347284037675
1.2780426014200472,-0.3701844039542992
1.2800426680889363,-0.40750229589401343
1.2820427347578252,-0.5897891768624025
1.2840428014267142,-0.3931288735721739
1.286042868095603,-0.42082450466964066
1.2880429347644922,-0.7149180339871771
1.290043001433381,-0.06442761450016893
1.29204306810227,-0.42801144860021356
1.294043134771159,-0.54230956866798
1.296043201440048,-0.10593800141256182
1.2980432681089369,-0.671182690860839
1.300043334777826,-0.197768263177167
1.3020434014467148,-0.5678638819185233
1.304043468115604,-0.7171370988844573
1.3060435347844928,-0.6405697775800319
1.3080436014533818,-0.7928576524421223
1.3100436681222707,-0.619393561529463
1.3120437347911595,-0.844837439751239
1.3140438014600486,-0.23450516638872915
1.3160438681289375,-0.17808440617672439
1.3180439347978266,-0.8825134492856689
1.3200440014667154,-0.9046086978456258
1.3220440681356045,-1.0347776519881653
1.3240441348044933,-0.9851943823658239
1.3260442014733824,-0.9468199662767396
1.3280442681422713,-0.7610571051211285
1.3300443348111604,-0.7180689718253367
1.3320444014800492,-0.9509235224736435
1.3340444681489383,-0.7672501761319959
1.3360445348178271,-1.3007755858287242
1.3380446014867162,-0.7568251444495699
1.340044668155605,-0.81965963106702
1.3420447348244942,-0.8279412194951281
1.344044801493383,-0.7684087659448049
1.346044868162272,-0.7755133164427891
1.348044934831161,-1.0370803103371435
1.35004500150005,-0.9480890019808289
1.3520450681689389,-0.9162040530004921
1.354045134837828,-1.4232757038665003
1.3560452015067168,-1.0855584568583854
1.358045268175606,-0.9128575597257923
1.3600453348444947,-0.8960777291052513
1.3620454015133838,-1.3491402621314026
1.3640454681822727,-1.377872670641102
1.3660455348511615,-1.0248145035487162
1.3680456015200506,-1.1558742110423819
1.3700456681889395,-0.9064149573682845
1.3720457348578285,-1.2144980551578552
1.3740458015267174,-1.3479809044861808
1.3760458681956065,-1.3628007680637315
1.3780459348644953,-1.0799584129287032
1.3800460015333844,-1.2297514482273002
1.3820460682022733,-0.9414036527493677
1.3840461348711623,-1.3832849259825617
1.3860462015400512,-1.0411702875805064
1.3880462682089403,-1.2278663900957352
1.3900463348778291,-1.455494392007181
1.3920464015467182,-1.4779993158551559
1.394046468215607,-0.9860834372097023
1.3960465348844961,-1.3999457465168446
1.398046601553385,-1.352208833583589
1.400046668222274,-1.3776600625086415
1.402046734891163,-1.224688986950077
1.404046801560052,-2.000687069051306
1.4060468682289409,-1.296325100289022
1.40804693489783,-1.4916105727374782
1.4100470015667188,-1.2020126269301667
1.4120470682356079,-1.296294275380443
1.4140471349044967,-1.6720137461984934
1.4160472015733858,-1.616288826611696
1.4180472682422747,-1.2724298625263164
1.4200473349111637,-1.5650408469327421
1.4220474015800526,-1.2805634086759905
1.4240474682489415,-1.3963726216294152
1.4260475349178305,-1.5812996123069563
1.4280476015867194,-1.3710056495059182
1.4300476682556085,-1.3214507953306336
1.4320477349244973,-1.5055643616004182
1.4340478015933864,-1.331909254650121
1.4360478682622753,-1.239329323219773
1.4380479349311643,-0.8422173683967008
1.4400480016000532,-1.1575973175003573
1.4420480682689423,-1.5927970098644646
1.4440481349378311,-1.5401190481245146
1.4460482016067202,-1.5162816358426054
1.448048268275609,-1.4531131448735684
1.4500483349444981,-1.4266968573493564
1.452048401613387,-1.5694210641921669
1.454048468282276,-1.7495484059212867
1.456048534951165,-1.5565126569413505
1.458048601620054,-1.5238358942064547
1.4600486682889429,-1.5709888063303055
1.462048734957832,-1.5949221056811287
1.4640488016267208,-1.315034820666944
1.4660488682956099,-1.8724869540258988
1.4680489349644987,-1.3887199445362453
1.4700490016333878,-1.4433624077024072
1.4720490683022767,-1.6768537308355613
1.4740491349711657,-1.0470027329343712
1.4760492016400546,-1.569830512308053
1.4780492683089437,-1.526884899648008
1.4800493349778325,-1.5858343393459255
1.4820494016467214,-1.2753089207696768
1.4840494683156105,-1.831487614860206
1.4860495349844993,-1.7699760552368766
1.4880496016533884,-1.6913501242541926
1.4900496683222773,-1.58296400263682
1.4920497349911663,-1.8446038815083092
1.4940498016600552,-1.420172755396143
1.4960498683289443,-1.1942924631523555
1.4980499349978331,-1.4317874552432992
1.5000500016667222,-1.468574765335664
1.502050068335611,-1.1523372520155024
1.5040501350045001,-1.085868372687568
1.506050201673389,-1.1583763847934005
1.508050268342278,-1.4295922376632715
1.510050335011167,-1.3622402194681515
1.512050401680056,-1.0594735638456985
1.5140504683489449,-1.0748154157547223
1.516050535017834,-1.3385932146416937
1.5180506016867228,-1.2927937104824967
1.5200506683556119,-1.34879737892433
1.5220507350245007,-1.2859528214023601
1.5240508016933898,-1.4395882277489198
1.5260508683622787,-1.4367675739695722
1.5280509350311677,-1.208889249795566
1.5300510017000566,-1.3337917265077421
1.5320510683689457,-1.2985444095329197
1.5340511350378345,-0.8946944617145103
1.5360512017067234,-1.5400474698716051
1.5380512683756125,-1.3590406533059318
1.5400513350445013,-0.9985808905945077
1.5420514017133904,-1.3422604964391736
1.5440514683822792,-1.0774343018227162
1.5460515350511683,-1.5143546049089776
1.5480516017200572,-1.170894965432709
1.5500516683889463,-0.9374075339777515
1.5520517350578351,-1.352186949461096
1.5540518017267242,-1.2642862891596154
1.556051868395613,-1.2847904478156802
1.5580519350645021,-1.3510324441886201
1.560052001733391,-1.2085396203475878
1.56205206840228,-1.0313066062812357
1.564052135071169,-1.1086326111174314
1.566052201740058,-1.0847490639165267
1.5680522684089468,-1.1060385090707323
1.570052335077836,-1.0638797597525564
1.5720524017467248,-0.8309880825923059
1.5740524684156139,-1.0822154179247858
1.5760525350845027,-0.8610871509843461
1.5780526017533918,-1.2060528320865802
1.5800526684222806,-1.0558805280598065
1.5820527350911697,-0.783484881064675
1.5840528017600586,-1.1437136418952158
1.5860528684289477,-0.9610570571648579
1.5880529350978365,-0.6824482657764401
1.5900530017667256,-1.15014316193613
1.5920530684356144,-0.41823405125747215
1.5940531351045033,-1.0672890294650645
1.5960532017733924,-0.7168674248597854
1.5980532684422812,-0.7099615357099747
1.6000533351111703,-0.8709230126923645
1.6020534017800592,-0.8072350026453061
1.6040534684489482,-0.613905366558703
1.606053535117837,-0.45329001681458647
1.6080536017867262,-0.66224405059833
1.610053668455615,-0.3027200694077089
1.6120537351245041,-0.39905067749434814
1.614053801793393,-0.36067705338683287
1.616053868462282,-0.5527785409275477
1.618053935131171,-0.4757891970100645
1.62005400180006,-0.30304678719494066
1.6220540684689488,-0.5453790067325228
1.624054135137838,-0.38351291513920427
1.6260542018067268,-0.33160497321244853
1.6280542684756159,-0.5763226466132791
1.6300543351445047,-0.22771977102372698
1.6320544018133938,-0.5947232571473935
1.6340544684822826,-0.09761254932823998
1.6360545351511717,-0.33397737004879124
1.6380546018200606,-0.5228693721723758
1.6400546684889497,-0.299191222348921
1.6420547351578385,-0.27045660385526044
1.6440548018267276,-0.3201739777158426
1.6460548684956164,-0.14020944018495232
1.6480549351645055,-0.2944058396506033
1.6500550018333944,-0.08724929488996822
1.6520550685022832,0.09844156686682165
1.6540551351711723,-0.2518432279465763
1.6560552018400612,-0.11059437786346651
1.6580552685089502,-0.3913013703508515
1.660055335177839,-0.00965101324314159
1.6620554018467282,-0.09304649467835632
1.664055468515617,0.15217464650424417
1.666055535184506,-0.11730778039061159
1.668055601853395,0.2649037931241761
1.670055668522284,0.07039625922504714
1.672055735191173,0.04896346427729309
1.674055801860062,-0.30000633995796
1.6760558685289508,0.017381086590119624
1.67805593519784,-0.185336751278878
1.6800560018667288,-0.1369566957540296
1.6820560685356178,0.36459053256013374
1.6840561352045067,0.039292728206427374
1.6860562018733958,0.3184875085373997
1.6880562685422846,-0.017586236383632242
1.6900563352111737,-0.04025385046507873
1.6920564018800626,0.16654053311913702
1.6940564685489516,0.3474783599754251
1.6960565352178405,0.21873056751005926
1.6980566018867296,0.3513711481061008
1.7000566685556184,0.3863477987546515
1.7020567352245075,0.3556016836394844
1.7040568018933964,0.5533653864596492
1.7060568685622854,0.41932474173679973
1.7080569352311743,0.7607621587791499
1.7100570019000632,0.8736707876780123
1.7120570685689522,0.33446086155113697
1.714057135237841,0.0667104722099241
1.7160572019067302,0.6553509211286813
1.718057268575619,0.5600986413754436
1.720057335244508,0.18901101285451422
1.722057401913397,0.41480727667652806
1.724057468582286,0.5991050168249346
1.726057535251175,0.7056215074044966
1.728057601920064,0.5545326312218621
1.7300576685889528,0.8371721737862373
1.732057735257842,0.3511523148926909
1.7340578019267308,0.8932662922437755
1.7360578685956198,0.6096194048345952
1.7380579352645087,0.7869135925221137
1.7400580019333978,0.35312979827928476
1.7420580686022866,0.6580042255978449
1.7440581352711757,1.0926262476943591
1.7460582019400646,0.7240962828899115
1.7480582686089536,0.9411953787682522
1.7500583352778425,0.9413505095461444
1.7520584019467316,1.2445960127715345
1.7540584686156204,0.705335665857883
1.7560585352845095,1.0731960180239466
1.7580586019533984,0.9585549819177204
1.7600586686222874,0.7659654091437362
1.7620587352911763,1.011910175170812
1.7640588019600651,1.1996839836487827
1.7660588686289542,1.1094151409083008
1.768058935297843,1.1010745108508386
1.7700590019667322,1.216830851229794
1.772059068635621,1.621414439584551
1.77405913530451,1.0546949581391323
1.776059201973399,1.445256488020067
1.778059268642288,1.3699380893239774
1.7800593353111769,1.4337398228882225
1.782059401980066,1.4602598613406015
1.7840594686489548,1.040226457747443
1.786059535317844,1.1768714521366321
1.7880596019867327,1.2719467104310784
1.7900596686556218,1.3609491404299612
1.7920597353245107,1.4449809828733498
1.7940598019933998,1.2482419994411211
1.7960598686622886,0.9510772293310985
1.7980599353311777,1.1695571783323047
1.8000600020000666,0.9532970588063536
1.8020600686689556,1.5709397718222085
1.8040601353378445,1.5094454888024817
1.8060602020067336,1.1082169064357643
1.8080602686756224,1.2764006575101876
1.8100603353445115,1.316869868712604
1.8120604020134004,1.5141127352146575
1.8140604686822894,1.3954675095109643
1.8160605353511783,1.6173887719741058
1.8180606020200674,1.0596903552690553
1.8200606686889562,1.1966779304011346
1.822060735357845,1.506169265053023
1.8240608020267342,1.4073116012469586
1.826060868695623,1.5092045259490388
1.828060935364512,1.3001744776807675
1.830061002033401,1.567840879128084
1.83206106870229,1.4213712356871662
1.8340611353711789,1.6759577255480456
1.836061202040068,1.7162234104924592
1.8380612687089568,1.4661551308926788
1.8400613353778459,1.3435028420168915
1.8420614020467347,1.3155426473755674
1.8440614687156238,1.8572185163451074
1.8460615353845127,1.0721043208355328
1.8480616020534018,1.6683782591068286
1.8500616687222906,1.2689650953387948
1.8520617353911797,1.581308239512113
1.8540618020600685,1.5738992992984422
1.8560618687289576,1.1611376184475204
1.8580619353978465,1.7753552430430604
1.8600620020667356,1.5205831973470665
1.8620620687356244,1.674652590173594
1.8640621354045135,1.5349190943477518
1.8660622020734023,1.2839231077198692
1.8680622687422914,1.1972134496985842
1.8700623354111803,1.2514333419754362
1.8720624020800694,1.73006804856592
1.8740624687489582,1.5141030417347485
1.8760625354178473,1.4414357107533544
1.8780626020867361,1.6550300000381057
1.880062668755625,1.3256982371015305
1.882062735424514,1.517580478054846
1.884062802093403,1.288818824140747
1.886062868762292,1.3979696284391003
1.8880629354311809,1.4119336591695946
1.89006300210007,1.6843390678337455
1.8920630687689588,1.3096102267107594
1.8940631354378479,1.4359862700054564
1.8960632021067367,1.5468829153173969
1.8980632687756258,1.5409499351211216
1.9000633354445147,1.4521364563381784
1.9020634021134037,1.300083604363127
1.9040634687822926,1.5693963401860862
1.9060635354511817,1.3397971419825454
1.9080636021200705,1.104075595725932
1.9100636687889596,1.5866534852582477
1.9120637354578485,1.1830207915101867
1.9140638021267375,1.4973970066951638
1.9160638687956264,1.4581607726576697
1.9180639354645155,1.3067740787486248
1.9200640021334043,1.2801364366105663
1.9220640688022934,1.4050639509056462
1.9240641354711823,1.5420167741628399
1.9260642021400713,1.3344804874453278
1.9280642688089602,1.3730918813532296
1.9300643354778493,1.3301695867901029
1.9320644021467381,1.2156899099598288
1.9340644688156272,1.0923634682629002
1.936064535484516,1.0720593392452966
1.938064602153405,1.304328877024619
1.940064668822294,1.2521575331928505
1.9420647354911829,1.6525156341773095
1.944064802160072,1.4260857472485062
1.9460648688289608,1.569319031104092
1.9480649354978499,1.3635211614152947
1.9500650021667387,1.3231910025123461
1.9520650688356278,1.6102586499154863
1.9540651355045167,1.3974302199460873
1.9560652021734057,1.4715271157292147
1.9580652688422946,1.056268378645051
1.9600653355111837,1.1885537457955917
1.9620654021800725,1.1432355999730799
1.9640654688489616,1.2222179527498342
1.9660655355178505,0.6161633084783685
1.9680656021867395,1.5052579155287336
1.9700656688556284,1.1169706462290498
1.9720657355245175,1.000920758831052
1.9740658021934063,0.8123515490481725
1.9760658688622954,0.9705365933200636
1.9780659355311843,0.9359385848691093
1.9800660022000733,1.0727571416710557
1.9820660688689622,1.1556690444453928
1.9840661355378513,1.216005352728232
1.9860662022067401,0.9692649899341853
1.9880662688756292,1.0408807000064333
1.990066335544518,0.8829217551717191
1.992066402213407,0.8212496064306369
1.994066468882296,0.5566121707894258
1.9960665355511849,1.0530606499907267
1.998066602220074,1.040716116398993
2.000066668888963,0.7923203182439983
2.0020667355578516,0.8562198556702262
2.004066802226741,0.8569983457778302
2.00606686889563,0.7013627398233278
2.0080669355645187,0.345210491321736
2.0100670022334075,0.6649703878870036
2.012067068902297,0.5787298211145214
2.0140671355711857,0.3465193761214813
2.0160672022400745,0.4454952063015762
2.0180672689089634,0.9400111964149838
2.0200673355778527,0.8542030542504597
2.0220674022467415,0.466804564667446
2.0240674689156304,0.6554883766116196
2.0260675355845192,0.878054756056173
2.0280676022534085,0.6145437625010032
2.0300676689222974,0.41424173480472015
2.0320677355911863,0.5393560360970183
2.034067802260075,1.0903259688682503
2.0360678689289644,0.6767832558173633
2.0380679355978533,-0.037806713190256525
2.040068002266742,0.4829608724629954
2.042068068935631,0.3207744845395867
2.0440681356045203,0.07962137241825562
2.046068202273409,0.4262270813072069
2.048068268942298,-0.0010854457301623377
2.050068335611187,0.5414644422537205
2.0520684022800757,-0.025946782872346197
2.054068468948965,0.24757194254553325
2.056068535617854,0.428644439353949
2.0580686022867427,0.33358197413241464
2.0600686689556316,0.3373151615399014
2.062068735624521,0.4338067933350763
2.0640688022934097,0.32750287791124333
2.0660688689622986,0.42173746628282116
2.0680689356311874,-0.08647358776340577
2.0700690023000767,0.11324534584015271
2.0720690689689656,-0.0667689541133828
2.0740691356378544,-0.102944229916211
2.0760692023067433,0.19877156694951592
2.0780692689756326,-0.1616955206346921
2.0800693356445215,-0.04788157964478737
2.0820694023134103,-0.05417929955235456
2.084069468982299,0.13141318318561895
2.0860695356511885,0.02826251204024193
2.0880696023200773,0.101971108403225
2.090069668988966,0.21399309731490837
2.092069735657855,0.08563352765629807
2.0940698023267443,-0.16242170566032327
2.096069868995633,-0.24508331011695136
2.098069935664522,-0.3594727382394073
2.100070002333411,0.0749380489533105
2.1020700690023,-0.28864932725810294
2.104070135671189,0.14193126089995123
2.106070202340078,0.04920980686397747
2.1080702690089668,-0.4078314932839028
2.1100703356778556,-0.4461350293931026
2.112070402346745,-0.5335408203351079
2.114070469015634,-0.32167610232435223
2.1160705356845226,-0.1747753027325335
2.1180706023534115,-0.3507352925173165
2.120070669022301,-0.26426040989193383
2.1220707356911896,-0.45205934994626584
2.1240708023600785,-0.7716483787484709
2.1260708690289674,-0.7819714682186407
2.1280709356978567,-0.38958077620775894
2.1300710023667455,-0.736670116107238
2.1320710690356344,-0.3569003158204638
2.1340711357045232,-0.26048867738678183
2.1360712023734125,-0.20824659423994585
2.1380712690423014,-0.4610708597848476
2.1400713357111902,-0.8548954078846667
2.142071402380079,-0.804880733254379
2.1440714690489684,-0.7778592767200851
2.1460715357178572,-0.7930095029651644
2.148071602386746,-0.5914721057985148
2.150071669055635,-0.66454102004999
2.1520717357245243,-0.8737265851202064
2.154071802393413,-0.8903429269681965
2.156071869062302,-0.48150649814673513
2.158071935731191,-0.8599536411804176
2.16007200240008,-0.7389446363360894
2.162072069068969,-1.0462123567594783
2.164072135737858,-0.9449002530581364
2.1660722024067467,-0.8991915757460407
2.1680722690756355,-0.908190126191606
2.170072335744525,-1.0831324337953523
2.1720724024134137,-1.244778324495548
2.1740724690823026,-1.2286318718691547
2.1760725357511914,-1.0424398956313181
2.1780726024200807,-0.8212971451275891
2.1800726690889696,-0.9831244668849269
2.1820727357578584,-1.1871035384593083
2.1840728024267473,-1.2105853617157232
2.1860728690956366,-0.918490158609083
2.1880729357645254,-1.0336260357366576
2.1900730024334143,-1.1773974815578903
2.192073069102303,-1.1092986747352716
2.1940731357711925,-1.1225255238408958
2.1960732024400813,-1.0170632170141218
2.19807326910897,-0.7434408280435347
2.200073335777859,-1.1144494752395633
2.2020734024467483,-0.8688373278886348
2.204073469115637,-1.2379734610547153
2.206073535784526,-1.4172947035732664
2.208073602453415,-0.9198496015675284
2.210073669122304,-1.2280744753223551
2.212073735791193,-1.486649510961426
2.214073802460082,-1.616917911314335
2.2160738691289708,-0.9613955907003969
2.21807393579786,-1.2328390134938094
2.220074002466749,-1.1412266260182304
2.2220740691356378,-1.3072579298305205
2.2240741358045266,-1.3580496448330694
2.2260742024734155,-1.1589765560795828
2.2280742691423048,-1.1083641648976064
2.2300743358111936,-1.2281007125937928
2.2320744024800825,-1.3738950854084897
2.2340744691489713,-1.5963902539602952
2.2360745358178606,-1.1492347224691244
2.2380746024867495,-1.22053319696108
2.2400746691556384,-1.5013240043505076
2.242074735824527,-1.3094938698495242
2.2440748024934165,-1.5348983701598393
2.2460748691623054,-1.345184386143344
2.248074935831194,-1.3049920642145874
2.250075002500083,-1.7060660972170956
2.2520750691689724,-1.9256513006032385
2.2540751358378612,-1.1629992981712793
2.25607520250675,-1.5694165697930127
2.258075269175639,-1.5458294185602943
2.2600753358445282,-1.4576978575357626
2.262075402513417,-1.3243153088684032
2.264075469182306,-1.0912978060270357
2.266075535851195,-1.374174826554721
2.268075602520084,-1.67663252707419
2.270075669188973,-1.2044995740151712
2.272075735857862,-1.4571805092257832
2.2740758025267507,-1.3915238139547743
2.2760758691956395,-1.4548888706048668
2.278075935864529,-1.3580114505406196
2.2800760025334177,-1.3628695940961875
2.2820760692023065,-1.444341478586549
2.2840761358711954,-1.3165435189790045
2.2860762025400847,-1.5467018717890488
2.2880762692089736,-1.591776786496518
2.2900763358778624,-1.6819693331952665
2.2920764025467513,-1.5997603084937853
2.2940764692156406,-1.3872942342127375
2.2960765358845294,-1.7607078188308027
2.2980766025534183,-1.5032459321692548
2.300076669222307,-1.3224926857458348
2.3020767358911964,-1.8055044723454416
2.3040768025600853,-1.603106679492809
2.306076869228974,-1.4246034543191883
2.308076935897863,-1.338690627207744
2.3100770025667523,-1.7142301826627069
2.312077069235641,-1.5283143939876807
2.31407713590453,-1.314798926914822
2.316077202573419,-1.324792259543416
2.318077269242308,-1.5252390404223064
2.320077335911197,-1.2193411389663178
2.322077402580086,-1.6654129221858558
2.3240774692489747,-1.4669748524985373
2.326077535917864,-1.5841757888003973
2.328077602586753,-1.8189673940677962
2.3300776692556417,-1.3841669410561699
2.3320777359245306,-1.4292018868111074
2.3340778025934195,-1.5368371688023623
2.3360778692623088,-1.6867226907641608
2.3380779359311976,-1.35250840527139
2.3400780026000865,-1.6420198102288526
2.3420780692689753,-1.2520244248271504
2.3440781359378646,-1.3607613995226913
2.3460782026067535,-1.2233833263067826
2.3480782692756423,-1.3838266284915037
2.350078335944531,-1.345198676444172
2.3520784026134205,-1.3647924989723095
2.3540784692823093,-1.0788056482487294
2.356078535951198,-1.3942608404178585
2.358078602620087,-1.3108344453488148
2.3600786692889764,-1.2421273112768838
2.362078735957865,-1.4202894874610132
2.364078802626754,-1.4227925338284908
2.366078869295643,-1.562415354975538
2.3680789359645322,-1.4104267641061838
2.370079002633421,-0.8825462178399994
2.37207906930231,-1.0417619748213398
2.374079135971199,-1.302941247323325
2.376079202640088,-1.0811047464871113
2.378079269308977,-1.207404483420522
2.380079335977866,-1.3090491999910674
2.3820794026467547,-1.144742829076318
2.384079469315644,-0.9738883961086238
2.386079535984533,-0.8488478897660551
2.3880796026534217,-0.9916874690862388
2.3900796693223105,-1.27039848580031
2.3920797359911994,-1.2335247958438622
2.3940798026600887,-0.7971770084706149
2.3960798693289775,-1.3658007712740523
2.3980799359978664,-1.2427056941247132
2.4000800026667553,-0.9847462507226725
2.4020800693356446,-1.1869451884821742
2.4040801360045334,-1.2596712982628493
2.4060802026734223,-0.892794108508455
2.408080269342311,-0.9417505923585957
2.4100803360112004,-1.069733209777595
2.4120804026800893,-0.9726028536079495
2.414080469348978,-0.9363639501278334
2.416080536017867,-0.986332205375347
2.4180806026867563,-0.8298783310252579
2.420080669355645,-0.954111578081595
2.422080736024534,-1.006093641503383
2.424080802693423,-0.5223470239760499
2.426080869362312,-0.81675475700812
2.428080936031201,-0.8298204213755407
2.43008100270009,-0.525589921242055
2.4320810693689787,-0.8734484109907131
2.434081136037868,-1.0475805679958319
2.436081202706757,-0.8289394475344658
2.4380812693756457,-0.7156144999250839
2.4400813360445346,-0.6745803624288753
2.442081402713424,-0.6898750623531067
2.4440814693823127,-0.6175706253273084
2.4460815360512016,-0.6289864410100452
2.4480816027200905,-0.7481306100248639
2.4500816693889793,-0.426210109672428
2.4520817360578686,-0.7392197316507853
2.4540818027267575,-0.5444269918779655
2.4560818693956463,-0.7846364705034736
2.458081936064535,-0.6489439899047356
2.4600820027334245,-0.45840878027428733
2.4620820694023133,-0.6362898846598777
2.464082136071202,-0.3658247717382806
2.466082202740091,-0.051519535537240535
2.4680822694089803,-0.2987992106504411
2.470082336077869,0.15441546327952116
2.472082402746758,-0.10260859941854136
2.474082469415647,-0.554141715140706
2.476082536084536,-0.17113978478982866
2.478082602753425,-0.23404521422716904
2.480082669422314,0.002236888248640906
2.482082736091203,-0.006189793813812433
2.484082802760092,-0.6828495665334212
2.486082869428981,-0.08917327158523078
2.48808293609787,-0.16486460119125398
2.4900830027667586,0.14537984241899465
2.492083069435648,-0.36998905904840995
2.494083136104537,-0.28284462826747747
2.4960832027734257,0.024864637363003192
2.4980832694423145,-0.14483564062441925
2.500083336111204,-0.09141661125423615
2.5020834027800927,0.13571892107129369
2.5040834694489815,-0.07939511326975354
2.5060835361178704,0.19479422237993888
2.5080836027867592,0.482109249574014
2.5100836694556485,0.1115925157210371
2.5120837361245374,0.03252014987740612
2.5140838027934262,0.2024551572149601
2.516083869462315,-0.012164734962825802
2.5180839361312044,0.4862455126772197
2.5200840028000933,0.17252766777917491
2.522084069468982,0.05706535590920264
2.524084136137871,0.1649568606768082
2.5260842028067603,0.0955505471129608
2.528084269475649,0.042116229753833834
2.530084336144538,0.45394351491928275
2.532084402813427,0.2825682729854744
2.534084469482316,0.6591083111510823
2.536084536151205,0.22858972183674212
2.538084602820094,0.5130686119315659
2.5400846694889827,0.7121351904941298
2.542084736157872,0.4999739833708228
2.544084802826761,0.643711270091196
2.5460848694956497,0.4268938744038387
2.5480849361645386,0.29487005312894554
2.550085002833428,0.8922139876739328
2.5520850695023167,0.35398225025450053
2.5540851361712056,0.37508622418266324
2.5560852028400944,0.5809830926087093
2.5580852695089837,0.7486267845639847
2.5600853361778726,0.8628752213472373
2.5620854028467615,0.7126218637328703
2.5640854695156503,0.7190681265080336
2.566085536184539,0.9693182524272996
2.5680856028534285,0.8240446536447956
2.5700856695223173,0.8522758098698313
2.572085736191206,0.9732221728281376
2.574085802860095,0.6134074066559383
2.5760858695289843,0.7389546564555584
2.578085936197873,0.5470761728745561
2.580086002866762,0.7768965476664741
2.582086069535651,0.9026821352144327
2.58408613620454,1.065533266473308
2.586086202873429,0.8939717548491084
2.588086269542318,1.0631629624443275
2.5900863362112068,0.8660124656616575
2.592086402880096,1.0668550751425814
2.594086469548985,1.0485794510496695
2.5960865362178738,1.0705156250850758
2.5980866028867626,0.9449575325893522
2.600086669555652,1.3330624299658886
2.602086736224541,1.291108254835685
2.6040868028934296,1.4083970038360663
2.6060868695623185,1.481181939367274
2.608086936231208,1.064439055818019
2.6100870029000967,1.2399061486699086
2.6120870695689855,1.3926086117290164
2.6140871362378744,1.1202836183952603
2.6160872029067637,1.3334972661303515
2.6180872695756525,1.2926274447594248
2.6200873362445414,1.4499641117426714
2.6220874029134302,1.0987607200215792
2.624087469582319,1.1747848960362308
2.6260875362512084,1.3477785118536127
2.6280876029200972,1.2969659614422389
2.630087669588986,1.1219266846314977
2.632087736257875,1.1410280515441105
2.6340878029267643,1.5922390146411352
2.636087869595653,1.289564371275044
2.638087936264542,1.426771236746944
2.640088002933431,1.5044169156111507
2.64208806960232,1.033537230689569
2.644088136271209,0.8493751890289056
2.646088202940098,1.521832211458563
2.6480882696089867,1.2248573242725225
2.650088336277876,1.3361762290021486
2.652088402946765,1.2318819040064724
2.6540884696156537,1.4123480753790392
2.6560885362845426,1.2795550793148378
2.658088602953432,1.7654061563002132
2.6600886696223207,1.310899533806555
2.6620887362912096,0.9682090656593887
2.6640888029600984,1.420977151295604
2.6660888696289877,1.650397031617442
2.6680889362978766,1.5330751995821785
2.6700890029667654,1.5125967209005942
2.6720890696356543,1.5386211319784735
2.674089136304543,1.0953521577270275
2.6760892029734324,1.1846381754864506
2.6780892696423213,1.4157051898002284
2.68008933631121,1.280542310704119
2.682089402980099,1.3400173892316989
2.6840894696489883,1.8329484522834363
2.686089536317877,1.5220424688401808
2.688089602986766,1.0504981082536995
2.690089669655655,1.4058059332724298
2.692089736324544,1.399975942676357
2.694089802993433,1.616650149942999
2.696089869662322,1.6221936652295394
2.6980899363312107,1.4428497959896787
2.7000900030001,1.5248296630700073
2.702090069668989,1.322246548164435
2.7040901363378778,1.536661236130372
2.7060902030067666,1.187300302734135
2.708090269675656,1.7161417040065423
2.7100903363445448,1.3475472605775458
2.7120904030134336,1.0444911599856337
2.7140904696823225,1.7617868823897538
2.716090536351212,1.227197312113983
2.7180906030201006,1.7837121352205818
2.7200906696889895,1.6806847776237015
2.7220907363578783,1.3001957640738753
2.7240908030267676,1.7914097917395393
2.7260908696956565,0.8678811531326498
2.7280909363645454,1.352905644843414
2.730091003033434,1.5723895121243783
2.732091069702323,1.6208318673050288
2.7340911363712124,1.585319069550136
2.7360912030401012,1.4013131402215981
2.73809126970899,1.3050890504795267
2.740091336377879,1.543864895810407
2.7420914030467682,1.2474869041000511
2.744091469715657,1.4139301684782395
2.746091536384546,1.0958192931154072
2.748091603053435,1.0323781577575402
2.750091669722324,1.246548709870532
2.752091736391213,1.5729090122036926
2.754091803060102,1.4186283957745423
2.7560918697289907,0.9217855794282912
2.75809193639788,1.1055685250623486
2.760092003066769,1.2551934357327
2.7620920697356577,1.7330419663740506
2.7640921364045465,1.1892712080783194
2.766092203073436,1.3032334516558741
2.7680922697423247,1.3794686242144663
2.7700923364112136,1.4091913439211536
2.7720924030801024,1.1029495576652986
2.7740924697489917,1.1008162978485747
2.7760925364178806,1.471149223497073
2.7780926030867694,1.3927588934530446
2.7800926697556583,1.0177817943441223
2.7820927364245476,1.5528799258590733
2.7840928030934364,1.5994425248597326
2.7860928697623253,1.2994687534318157
2.788092936431214,1.4647634648103438
2.790093003100103,1.381439952749967
2.7920930697689923,0.9546693371518324
2.794093136437881,1.3363847379334228
2.79609320310677,1.2769636611588366
2.798093269775659,0.706273677265497
2.800093336444548,1.099054921941386
2.802093403113437,0.9526480242788644
2.804093469782326,1.1151200194730033
2.8060935364512147,1.3223506991287444
2.808093603120104,0.8683646707281008
2.810093669788993,1.4107059329710274
2.8120937364578817,1.112292500306718
2.8140938031267706,1.207360078137886
2.81609386979566,0.8713860048541924
2.8180939364645488,1.0079096088789465
2.8200940031334376,1.0287856046228223
2.8220940698023265,0.8242363027254419
2.8240941364712158,0.9784489233415216
2.8260942031401046,0.7730021226470201
2.8280942698089935,1.1541441158358214
2.8300943364778823,0.9617552853496758
2.8320944031467716,1.0340245714913086
2.8340944698156605,0.9543366815865558
2.8360945364845493,0.9756742032289597
2.838094603153438,0.9590014754591976
2.8400946698223275,1.1401795321498367
2.8420947364912164,0.7394598807789964
2.844094803160105,0.6020052537381311
2.846094869828994,0.9721969362027663
2.848094936497883,0.8952558686003201
2.8500950031667722,0.8873912211288174
2.852095069835661,0.6240005690172603
2.85409513650455,0.7000860734705144
2.856095203173439,0.8281664530907467
2.858095269842328,0.8379463365968297
2.860095336511217,0.4266145376756872
2.862095403180106,0.6013997957382193
2.8640954698489947,0.5721836027848498
2.866095536517884,0.6511367572090149
2.868095603186773,0.783475032360164
2.8700956698556617,0.5270263029006156
2.8720957365245505,0.6708498517121855
2.87409580319344,0.2672959415224059
2.8760958698623287,0.8498678364811588
2.8780959365312175,0.27733804421146957
2.8800960032001064,0.4384990025786602
2.8820960698689957,0.4296543555767574
2.8840961365378845,0.2214722916422984
2.8860962032067734,0.33934961145993603
2.8880962698756623,0.11522620706200432
2.8900963365445516,0.6163936605131128
2.8920964032134404,0.26272365897629835
2.8940964698823293,-0.08359813712674546
2.896096536551218,0.2195566986864755
2.8980966032201074,0.11147727388377587
2.9000966698889963,0.03860287183731356
2.902096736557885,0.2341686438036854
2.904096803226774,0.16887346167187764
2.906096869895663,0.10818342435696655
2.908096936564552,0.027303477895668463
2.910097003233441,0.2500361990105511
2.91209706990233,-0.10866102430810236
2.9140971365712187,0.3256370791306357
2.916097203240108,-0.22977564984326013
2.918097269908997,0.34737269778816277
2.9200973365778857,0.15003203656712283
2.9220974032467746,-0.1024848592795968
2.924097469915664,-0.25425375129883176
2.9260975365845527,0.08698632746872828
2.9280976032534416,-0.05939761179657245
2.9300976699223305,-0.08789748311766597
2.9320977365912197,-0.5976153233433505
2.9340978032601086,-0.3580023117932365
2.9360978699289975,-0.22974237433370842
2.9380979365978863,0.2907838145743201
2.9400980032667756,-0.25642026947213753
2.9420980699356645,-0.27050340401805106
2.9440981366045533,-0.4107716145513617
2.946098203273442,0.04471344825273271
2.9480982699423315,-0.20641804721937007
2.9500983366112203,-0.6451953019522335
2.952098403280109,-0.5042308436151302
2.954098469948998,-0.47938637443708665
2.9560985366178874,-0.24359432599969502
2.958098603286776,-0.34162994577224004
2.960098669955665,-0.4115854070977917
2.962098736624554,-0.6026144651869397
2.9640988032934428,-0.8521995023065125
2.966098869962332,-0.577128340159375
2.968098936631221,-0.21441663025538082
2.97009900330011,-1.0832118763194472
2.9720990699689986,-0.5618122773751504
2.974099136637888,-0.3979655623847402
2.976099203306777,-0.5033036164933797
2.9780992699756657,-0.9354893365586049
2.9800993366445545,-0.44856113309529
2.982099403313444,-0.747124421817488
2.9840994699823327,-1.0681697937434742
2.9860995366512215,-0.6506590937049974
2.9880996033201104,-0.8378447584908839
2.9900996699889997,-0.8330204147428338
2.9920997366578885,-1.0792461605236088
2.9940998033267774,-1.0626653626822002
2.9960998699956662,-0.9267178147528036
2.9980999366645555,-1.008640122470533
3.0001000033334444,-1.3186217085877985
3.0021000700023333,-0.73221710462365
3.004100136671222,-0.9979483247100789
3.0061002033401114,-0.8557774049014293
3.0081002700090003,-0.6842151022586684
3.010100336677889,-0.8758401302809016
3.012100403346778,-1.081718104873809
3.0141004700156673,-1.2587907685757171
3.016100536684556,-0.9078391843948778
3.018100603353445,-0.7372427998071829
3.020100670022334,-1.1224317456374184
3.0221007366912227,-1.0801478067233623
3.024100803360112,-0.9391667366750582
3.026100870029001,-1.071367962262876
3.0281009366978897,-0.8393646011388627
3.0301010033667786,-0.7385872388792467
3.032101070035668,-1.0332485401786407
3.0341011367045567,-1.237272606875828
3.0361012033734456,-1.1695600584703272
3.0381012700423344,-1.2947693637958073
3.0401013367112237,-1.0980388945949722
3.0421014033801126,-1.2414794480666318
3.0441014700490014,-0.987694514524535
3.0461015367178903,-1.497137069321062
3.0481016033867796,-1.088770718779903
3.0501016700556685,-1.3893239100993027
3.0521017367245573,-1.20212768682961
3.054101803393446,-1.0872727160091593
3.0561018700623355,-1.4770655631493825
3.0581019367312243,-1.067319372223258
3.060102003400113,-0.8105554609178953
3.062102070069002,-1.4607769079199344
3.0641021367378913,-1.047067880053481
3.06610220340678,-1.3361933939720947
3.068102270075669,-1.1130400803144211
3.070102336744558,-1.3461509563282856
3.0721024034134468,-1.5145908136233779
3.074102470082336,-1.5122590327760208
3.076102536751225,-1.2880862156441313
3.0781026034201138,-1.060951710880772
3.0801026700890026,-1.304010323862688
3.082102736757892,-1.237673253294105
3.084102803426781,-1.2515905959545075
3.0861028700956696,-1.6130135733039859
3.0881029367645585,-1.4024357734077282
3.090103003433448,-1.1410545223342008
3.0921030701023366,-1.9110342140042835
3.0941031367712255,-1.2190198471877167
3.0961032034401144,-1.4718065941319103
3.0981032701090037,-1.8442624909946632
3.1001033367778925,-1.142509022353355
3.1021034034467814,-1.5140935507930826
3.1041034701156702,-1.4268248217078787
3.1061035367845595,-1.544716261687917
3.1081036034534484,-1.6255947543133527
3.1101036701223372,-1.9483891913929112
3.112103736791226,-1.30606708220463
3.1141038034601154,-1.7214825778560086
3.1161038701290042,-1.693692623869219
3.118103936797893,-1.2608514581062655
3.120104003466782,-1.4398427839328891
3.1221040701356713,-1.4159522702744258
3.12410413680456,-1.5953439763053479
3.126104203473449,-1.5924864178633744
3.128104270142338,-1.3219143507101665
3.1301043368112267,-1.7197468378330911
3.132104403480116,-1.613081139753017
3.134104470149005,-1.607339530130066
3.1361045368178937,-1.449038369840273
3.1381046034867826,-1.6369000494081933
3.140104670155672,-1.1611705593161157
3.1421047368245607,-1.4313370719808878
3.1441048034934496,-1.5195426060446284
3.1461048701623384,-1.4843972527671843
3.1481049368312277,-1.3990247582311501
3.1501050035001166,-1.189610616593294
3.1521050701690054,-1.3807619886525213
3.1541051368378943,-1.4169062381934054
3.1561052035067836,-1.7682351142001034
3.1581052701756724,-1.2649911562453102
3.1601053368445613,-1.3730573540343132
3.16210540351345,-1.0644989725775642
3.1641054701823395,-1.272786505654097
3.1661055368512283,-1.6334051012829445
3.168105603520117,-1.3755684699437067
3.170105670189006,-1.1193120699523078
3.1721057368578953,-1.327485564939472
3.174105803526784,-1.4643456655923603
3.176105870195673,-1.1896438169742305
3.178105936864562,-1.327045629339693
3.180106003533451,-1.2085356207870221
3.18210607020234,-1.4006010914574707
3.184106136871229,-1.2989959048288402
3.1861062035401178,-0.9453593796717855
3.1881062702090066,-1.082421960171017
3.190106336877896,-1.5764216915207887
3.1921064035467848,-1.3536251002847353
3.1941064702156736,-1.3183485294338768
3.1961065368845625,-1.2491466276356653
3.1981066035534518,-1.2868316989982729
3.2001066702223406,-1.4421892939908436
3.2021067368912295,-1.1518534697732195
3.2041068035601183,-1.2243920264019723
3.2061068702290076,-1.0090636287663686
3.2081069368978965,-0.891700571661375
3.2101070035667854,-0.7490573935968111
3.212107070235674,-1.1482756348286067
3.2141071369045635,-0.9396926023479174
3.2161072035734524,-1.001550617911714
3.2181072702423412,-1.3033951578015641
3.22010733691123,-1.0762180001231787
3.2221074035801194,-1.277091180239473
3.2241074702490082,-1.026600341715152
3.226107536917897,-1.0643363287388103
3.228107603586786,-0.9440395579601035
3.2301076702556752,-0.8452055658620943
3.232107736924564,-1.5100694890356667
3.234107803593453,-1.077930238476253
3.236107870262342,-0.9940421876220419
3.238107936931231,-0.6726965046356577
3.24010800360012,-0.5758833986044161
3.242108070269009,-0.9576731268531267
3.2441081369378977,-0.820673828676995
3.2461082036067865,-0.981349513284763
3.248108270275676,-0.8488976227574812
3.2501083369445647,-0.9393500049531438
3.2521084036134535,-1.270030282478421
3.2541084702823424,-1.0688691007500701
3.2561085369512317,-1.2130598671318804
3.2581086036201206,-0.688400185974434
3.2601086702890094,-0.8975745603479067
3.2621087369578983,-0.5115283334721191
3.2641088036267876,-0.9327123225551073
3.2661088702956764,-0.8428992263839542
3.2681089369645653,-0.7092662544789681
3.270109003633454,-0.1484544520068839
3.2721090703023434,-0.35354312562108725
3.2741091369712323,-0.3884628494515486
3.276109203640121,-0.321905298503208
3.27810927030901,-0.7233801279232908
3.2801093369778993,-0.9497556871132131
3.282109403646788,-0.5806746640705694
3.284109470315677,-0.5898926769294529
3.286109536984566,-0.3145284130611874
3.288109603653455,-0.4631980530246647
3.290109670322344,-0.34159862020893683
3.292109736991233,-0.6350169065510033
3.2941098036601217,-0.27533649441897406
3.296109870329011,-0.4925760322759617
3.2981099369979,-0.185666459916355
3.3001100036667887,-0.5008903914858753
3.3021100703356776,-0.48949514763206237
3.3041101370045665,0.08182620150887743
3.3061102036734558,0.04657890479740223
3.3081102703423446,-0.28384617187319555
3.3101103370112335,-0.3190842946827241
3.3121104036801223,-0.1855062853323969
3.3141104703490116,0.22006754537768938
3.3161105370179005,-0.362034676432491
3.3181106036867893,-0.4329676794628038
3.320110670355678,0.05279773802555418
3.3221107370245675,-0.03713566428954744
3.3241108036934564,0.16740825201939605
3.326110870362345,-0.22446626741396425
3.328110937031234,0.05817594313600631
3.3301110037001234,-0.08346205332843243
3.332111070369012,-0.13253443360105172
3.334111137037901,-0.1470470145100937
3.33611120370679,-0.14418187852650277
3.3381112703756792,-0.17262240454875002
3.340111337044568,0.04613561146052113
3.342111403713457,0.2594631491634181
3.344111470382346,-0.15365214543465097
3.346111537051235,0.15083597792963357
3.348111603720124,0.31033980500685493
3.350111670389013,0.2505724540634745
3.3521117370579017,-0.02008306347064076
3.354111803726791,0.26385527877737586
3.35611187039568,0.22463854425433388
3.3581119370645687,0.18752857477054408
3.3601120037334575,0.5234738850039823
3.3621120704023464,0.2744851735303374
3.3641121370712357,0.15508646765878537
3.3661122037401245,0.42188549349227955
3.3681122704090134,0.5768951779271441
3.3701123370779023,0.22468274616612624
3.3721124037467916,0.4337401433596213
3.3741124704156804,0.16585730700232848
3.3761125370845693,0.7840607170170684
3.378112603753458,0.21584390425075028
3.3801126704223474,0.42493117630927735
3.3821127370912363,0.9458973934900297
3.384112803760125,0.7166525201471463
3.386112870429014,0.8128538425019838
3.3881129370979033,0.5545827848815854
3.390113003766792,0.46269262986679016
3.392113070435681,0.9872127002152187
3.39411313710457,0.6261177652698787
3.396113203773459,0.8095478481481523
3.398113270442348,0.7119394716489361
3.400113337111237,0.47888042075901055
3.4021134037801257,0.6500015830772254
3.404113470449015,0.9242959558342594
3.406113537117904,0.512144314895056
3.4081136037867927,1.0081967500363052
3.4101136704556816,0.9288869012563821
3.412113737124571,1.0214245661802555
3.4141138037934597,0.46556010179322316
3.4161138704623486,0.9779324091733717
3.4181139371312375,0.7457987807659954
3.4201140038001263,0.8233377461134866
3.4221140704690156,1.0967424305513325
3.4241141371379045,1.0393662432112134
3.4261142038067933,0.7903975325258913
3.428114270475682,1.1405802907138303
3.4301143371445715,0.42670640719052877
3.4321144038134603,0.9843036366825766
3.434114470482349,1.0491237672042815
3.436114537151238,0.9160663742881457
3.4381146038201273,1.3239315027561245
3.440114670489016,0.8281238444239958
3.442114737157905,1.3566199794234948
3.444114803826794,0.8266179781740246
3.446114870495683,1.2970853649902367
3.448114937164572,0.9456538658399285
3.450115003833461,1.1995654310711694
3.45211507050235,1.282280162142376
3.454115137171239,1.13166794695767
3.456115203840128,0.8774202396385535
3.458115270509017,1.3937173830849137
3.4601153371779056,0.9930106216847564
3.462115403846795,1.2893443423696067
3.464115470515684,1.0286814829494735
3.4661155371845727,1.4213771953303107
3.4681156038534615,1.4691917270319967
3.470115670522351,0.7490948568399558
3.4721157371912397,1.2506130545896816
3.4741158038601285,1.3687406292684634
3.4761158705290174,1.013299729294573
3.4781159371979062,1.3810628692110383
3.4801160038667955,1.0877354151316247
3.4821160705356844,1.240376771716149
3.4841161372045732,1.3679448737210296
3.486116203873462,1.360274293882853
3.4881162705423514,1.4161012546259972
3.4901163372112403,1.4821333050145562
3.492116403880129,1.3379737045925915
3.494116470549018,1.1520835717690796
3.4961165372179073,1.4814563609142182
3.498116603886796,1.4501827242409389
3.500116670555685,1.584551022013866
3.502116737224574,1.6061130471198166
3.504116803893463,1.3079000711404278
3.506116870562352,1.263330261257483
3.508116937231241,1.6576163554036654
3.5101170039001297,1.6575022458831115
3.512117070569019,1.7041510568154934
3.514117137237908,1.4172674691332539
3.5161172039067967,1.2537049079693197
3.5181172705756856,1.8826621600656894
3.520117337244575,1.3845947668612892
3.5221174039134637,1.5109886776243253
3.5241174705823526,1.7375282788758388
3.5261175372512414,1.6534302122013445
3.5281176039201303,1.499409513139524
3.5301176705890196,1.6070606381337316
3.5321177372579085,1.1027909318504014
3.5341178039267973,1.732846674817129
3.536117870595686,1.2311352379232399
3.5381179372645755,1.473481786224013
3.5401180039334643,1.3568056399651813
3.542118070602353,1.3943591190658189
3.544118137271242,1.2263475737183112
3.5461182039401313,1.7695957859052767
3.54811827060902,1.1585385877038186
3.550118337277909,1.5443128561453083
3.552118403946798,1.4372353383788428
3.554118470615687,1.1522290710300669
3.556118537284576,1.49352922490656
3.558118603953465,1.2848678025094529
3.5601186706223538,1.7319381191116632
3.562118737291243,1.7164312172291858
3.564118803960132,1.5210848913955546
3.5661188706290208,1.4092188176734017
3.5681189372979096,1.503223279173358
3.570119003966799,1.3864365300563388
3.572119070635688,1.732248952711046
3.5741191373045766,1.6096858783455157
3.5761192039734655,1.6366118614125584
3.578119270642355,1.569046910368591
3.5801193373112437,1.4130198890922592
3.5821194039801325,1.4309377632188642
3.5841194706490214,1.6607284777040034
3.58611953731791,1.7829949933185625
3.5881196039867995,1.2173701285362326
3.5901196706556884,1.4549606986945862
3.5921197373245772,1.2440763047684362
3.594119803993466,1.391394800980143
3.5961198706623554,1.738240483340864
3.5981199373312442,1.3294620100921315
3.600120004000133,1.5307607717537313
3.602120070669022,1.5394104234744075
3.6041201373379113,1.4419598466575603
3.6061202040068,1.3563874494071277
3.608120270675689,1.4608380323360843
3.610120337344578,1.3149344099810543
3.612120404013467,1.2794989002058883
3.614120470682356,1.435849455487004
3.616120537351245,1.4158968565396413
3.6181206040201337,1.375318049478482
3.620120670689023,1.2086280665575955
3.622120737357912,1.0049037052549785
3.6241208040268007,1.342916076790447
3.6261208706956896,1.3196891750916957
3.628120937364579,1.239909494985687
3.6301210040334677,1.171414741061157
3.6321210707023566,0.9147248407247198
3.6341211373712454,1.176557282516422
3.6361212040401347,1.131413700598152
3.6381212707090236,0.7220562558461339
3.6401213373779124,0.8694176523403693
3.6421214040468013,1.0995739925555301
3.64412147071569,1.3215389842618634
3.6461215373845794,0.8979907539063872
3.6481216040534683,1.2911518658375793
3.650121670722357,1.0034387629520563
3.652121737391246,1.085830104966275
3.6541218040601353,1.013341755341074
3.656121870729024,0.8652008182409204
3.658121937397913,0.7768892696730608
3.660122004066802,0.9394957270491818
3.662122070735691,1.0404349963742703
3.66412213740458,1.118356929152665
3.666122204073469,1.0633404445902248
3.6681222707423577,0.9661695332561288
3.670122337411247,0.7222375879656846
3.672122404080136,0.9756364568301352
3.6741224707490248,0.87276453524371
3.6761225374179136,0.7377387918081292
3.678122604086803,0.5383752800953959
3.6801226707556918,0.7484163082899432
3.6821227374245806,0.6592417111041897
3.6841228040934695,0.8251029051489326
3.686122870762359,0.8437287933592625
3.6881229374312476,0.8785353780886416
3.6901230041001365,0.45798682939822055
3.6921230707690254,0.9740841880744704
3.6941231374379147,0.8457990720813888
3.6961232041068035,0.6682109112329421
3.6981232707756924,0.6866300022503877
3.700123337444581,0.7279219136130487
3.70212340411347,0.3953855726175972
3.7041234707823594,0.7620686645000501
3.7061235374512482,0.668940277382192
3.708123604120137,0.5230942272430913
3.710123670789026,0.19882202772340107
3.7121237374579152,0.597368520561151
3.714123804126804,0.5091113416599443
3.716123870795693,0.6533292165212128
3.718123937464582,0.018429371827053842
3.720124004133471,0.39960463461362866
3.72212407080236,0.09494800018420849
3.724124137471249,0.5476163285517512
3.7261242041401377,-0.18268865407046825
3.728124270809027,0.36348598487259337
3.730124337477916,0.40421030162274096
3.7321244041468047,0.10913370114395263
3.7341244708156935,0.3179772665366937
3.736124537484583,0.5152267870278354
3.7381246041534717,0.45839453677072733
3.7401246708223606,0.32575744640886495
3.7421247374912494,0.1936685983484711
3.7441248041601387,0.24200628919921233
3.7461248708290276,0.24832202775180767
3.7481249374979164,0.147171470983065
3.7501250041668053,0.22205590932691854
3.7521250708356946,-0.06425987238718794
3.7541251375045834,0.2592199202826627
3.7561252041734723,0.03704732253956933
3.758125270842361,-0.0021264362268184067
3.76012533751125,-0.034985046883375615
3.7621254041801393,-0.18094477338421439
3.764125470849028,0.26821441186462985
3.766125537517917,-0.17329126301096634
3.768125604186806,-0.3910373450354878
3.770125670855695,-0.39645539532465457
3.772125737524584,-0.23649571587891047
3.774125804193473,-0.10382975671178984
3.7761258708623617,-0.3386683397515093
3.778125937531251,-0.22210316706051852
3.78012600420014,-0.8190051168649404
3.7821260708690287,-0.9294278489491778
3.7841261375379176,-0.23540756964655205
3.786126204206807,-0.46540991834577017
3.7881262708756958,-0.18785397498553866
3.7901263375445846,-0.6722894581422367
3.7921264042134735,-0.41758539316413607
3.7941264708823628,-0.4189874119743029
3.7961265375512516,-0.3985452277649921
3.7981266042201405,-0.7062251871755754
3.8001266708890293,-0.6989356867341066
3.8021267375579186,-0.6674344381461678
3.8041268042268075,-0.3811534104835603
3.8061268708956963,-0.5146454178318576
3.808126937564585,-0.2720944137301696
3.8101270042334745,0.056516386394858564
3.8121270709023634,-0.8352181037020744
3.814127137571252,-0.5464756707554279
3.816127204240141,-0.6343380663580633
3.81812727090903,-0.8627602938179361
3.8201273375779192,-0.5701833413546922
3.822127404246808,-1.0311034581578298
3.824127470915697,-0.7236122251859994
3.826127537584586,-0.7189126518327849
3.828127604253475,-0.7105989766872444
3.830127670922364,-0.882285307901842
3.832127737591253,-0.4647732755418009
3.8341278042601417,-0.920433408130015
3.836127870929031,-0.5048751278249632
3.83812793759792,-0.762978200154361
3.8401280042668087,-1.0038456004678755
3.8421280709356975,-0.7408212961557021
3.844128137604587,-0.7723104205688648
3.8461282042734757,-1.044386963940765
3.8481282709423645,-1.0133387511814398
3.8501283376112534,-0.9603284391920781
3.8521284042801427,-0.7583611946007667
3.8541284709490315,-0.9905465334504651
3.8561285376179204,-0.9459517348447781
3.8581286042868093,-0.9010027211950636
3.8601286709556986,-0.8300821333258648
3.8621287376245874,-1.3191108821930437
3.8641288042934763,-0.7417617496994513
3.866128870962365,-1.1238458133297058
3.8681289376312544,-1.1255388490551714
3.8701290043001433,-1.1188570534499886
3.872129070969032,-1.2691396144341571
3.874129137637921,-0.9608538906152008
3.87612920430681,-1.1895020129051546
3.878129270975699,-0.6862823710456726
3.880129337644588,-1.138262357824744
3.882129404313477,-1.2896742927659097
3.8841294709823657,-1.1393230793807727
3.886129537651255,-1.1138321939573979
3.888129604320144,-1.4321204885591328
3.8901296709890327,-1.178857468601391
3.8921297376579216,-1.314603579664451
3.894129804326811,-1.3753944055859213
3.8961298709956997,-1.3109883089541086
3.8981299376645886,-1.5282862907458394
3.9001300043334775,-1.644012510291861
3.9021300710023668,-1.7224745266062336
3.9041301376712556,-1.1881382055027314
3.9061302043401445,-1.5372640316110795
3.9081302710090333,-1.4504018938336372
3.9101303376779226,-1.8871681630695805
3.9121304043468115,-1.3345658884445912
3.9141304710157003,-1.0123312690455641
3.916130537684589,-1.6532369696868399
3.9181306043534785,-1.5853155163920194
3.9201306710223673,-1.803190941535255
3.922130737691256,-1.7946329217673918
3.924130804360145,-1.6600831051512444
3.926130871029034,-1.5218478522208023
3.928130937697923,-1.6150772396362285
3.930131004366812,-1.6504920473612115
3.932131071035701,-1.5178948004675483
3.9341311377045898,-1.4225271956452485
3.936131204373479,-1.1894124162302957
3.938131271042368,-1.5286127234327969
3.940131337711257,-1.505636265846077
3.9421314043801456,-1.85341268936963
3.944131471049035,-1.4527234676642073
3.946131537717924,-1.5010902317674546
3.9481316043868127,-1.4020424621377958
3.9501316710557015,-1.5693421658901783
3.952131737724591,-1.4369032416145862
3.9541318043934797,-1.3232383841050606
3.9561318710623685,-1.5044159134293351
3.9581319377312574,-1.4515032993657322
3.9601320044001467,-1.4961495407857084
3.9621320710690355,-1.6145198840122388
3.9641321377379244,-1.5042960949928228
3.9661322044068132,-1.514338655102648
3.9681322710757025,-1.4132168379272079
3.9701323377445914,-1.35866365907677
3.9721324044134803,-1.659990209331948
3.974132471082369,-1.593683531968939
3.9761325377512584,-1.7170552224880142
3.9781326044201473,-1.5091531700342498
3.980132671089036,-1.1830948563956756
3.982132737757925,-1.6468421642835278
3.984132804426814,-1.5215294059773306
3.986132871095703,-1.5937763056578065
3.988132937764592,-1.3169752480243941
3.990133004433481,-1.8364487383319799
3.9921330711023697,-1.322186907984698
3.994133137771259,-1.7062413606698876
3.996133204440148,-1.3517025068746338
3.9981332711090367,-1.4655590060072583
4.000133337777926,-1.722179978639968
4.002133404446814,-1.4362294560951572
4.004133471115703,-1.8057596666841438
4.006133537784593,-1.2500029655563507
4.008133604453482,-1.3681014340369577
4.010133671122371,-1.3434560526758657
4.01213373779126,-1.6245255871487725
4.0141338044601484,-1.1974617942480505
4.016133871129037,-1.2724125049578945
4.018133937797926,-1.4279030049497157
4.020134004466815,-1.4543234562122471
4.022134071135705,-1.0762103901523647
4.024134137804594,-1.3448224839663037
4.0261342044734825,-1.3932068908132214
4.028134271142371,-1.0624304224251995
4.03013433781126,-1.2889580472152649
4.032134404480149,-1.1950246208610327
4.034134471149038,-1.1427995157300643
4.036134537817927,-0.8546401007083244
4.0381346044868165,-1.1758385282459156
4.040134671155705,-1.2513436836943956
4.042134737824594,-1.3299331343862744
4.044134804493483,-1.2292694561196256
4.046134871162372,-0.6786487784859677
4.048134937831261,-1.099479911055124
4.05013500450015,-1.122618721480633
4.0521350711690385,-1.0886664238031265
4.054135137837927,-1.1032370888480614
4.056135204506817,-1.023678437877956
4.058135271175706,-1.2528506472203271
4.060135337844595,-1.3426404548687054
4.062135404513484,-0.9279568055026255
4.0641354711823725,-1.3980141077540797
4.066135537851261,-0.4574708622709096
4.06813560452015,-0.9767199449342254
4.070135671189039,-0.9665856872759966
4.072135737857929,-0.6638789314485545
4.074135804526818,-1.0502932865468213
4.0761358711957065,-0.7299247553870554
4.078135937864595,-0.8373205793858456
4.080136004533484,-0.8082296577804403
4.082136071202373,-0.7309413826151693
4.084136137871262,-0.9608979857220523
4.086136204540151,-0.9134052361590895
4.0881362712090406,-0.48578073172370206
4.090136337877929,-0.8180540230875275
4.092136404546818,-0.7624299256766445
4.094136471215707,-0.770552434469319
4.096136537884596,-0.6300206863431975
4.098136604553485,-0.4572279099925425
4.100136671222374,-0.6483260051251165
4.1021367378912625,-0.5475861512899403
4.104136804560151,-0.45557328663990976
4.106136871229041,-0.573289798295639
4.10813693789793,-0.6371210459033775
4.110137004566819,-0.6395922223169878
4.112137071235708,-0.5109292888781845
4.114137137904597,-0.3219433532824194
4.116137204573485,-0.44662256692169633
4.118137271242374,-0.6182025658320816
4.120137337911263,-0.4595799819008976
4.122137404580153,-0.6955582299876794
4.124137471249042,-0.23536199833021693
4.126137537917931,-0.14998600294127107
4.128137604586819,-0.3105803759995631
4.130137671255708,-0.6272981858047225
4.132137737924597,-0.5780516658815682
4.134137804593486,-0.3224553014942924
4.136137871262375,-0.34150517919877965
4.138137937931265,-0.4821503678464343
4.1401380046001535,-0.142830329733024
4.142138071269042,-0.33067884432608374
4.144138137937931,-0.5785838756770387
4.14613820460682,0.07730453222429493
4.148138271275709,-0.3911241627904628
4.150138337944598,-0.1869597738204638
4.152138404613487,0.09639504631338847
4.1541384712823755,0.028569342490870037
4.156138537951265,-0.03720652795251492
4.158138604620154,-0.3670630665310598
4.160138671289043,-0.0748384520055457
4.162138737957932,0.09281681803933532
4.164138804626821,-0.11712933734971254
4.1661388712957095,0.04737473712348753
4.168138937964598,0.4042162636685383
4.170139004633487,0.09081256633721184
4.172139071302377,0.2440812970468721
4.174139137971266,-0.027399106371110496
4.176139204640155,0.03142548727960544
4.1781392713090435,-0.27478414061843504
4.180139337977932,0.21340673869815285
4.182139404646821,0.16546207301005886
4.18413947131571,0.08542294430059569
4.186139537984599,0.11028778007036626
4.188139604653489,0.5987734019567916
4.1901396713223775,0.3159378684377435
4.192139737991266,0.4613116302562297
4.194139804660155,0.05988573083489293
4.196139871329044,0.7576291409325424
4.198139937997933,0.6027574939410545
4.200140004666822,0.6478041713862683
4.202140071335711,0.3705216085768945
4.2041401380046,0.5699999229702736
4.206140204673489,0.17560537037011842
4.208140271342378,0.583601565148394
4.210140338011267,0.2312655635138357
4.212140404680156,0.41725935663943253
4.214140471349045,0.089639644139754
4.2161405380179335,0.32333363039030105
4.218140604686822,0.544255518209721
4.220140671355711,0.3054581395531895
4.222140738024601,0.42953591033977556
4.22414080469349,0.4721593653081391
4.226140871362379,0.5288717033990937
4.228140938031268,0.354185167864719
4.230141004700156,0.5003952564628964
4.232141071369045,0.4902293456287725
4.234141138037934,0.7263166262229456
4.236141204706823,0.7219834003413157
4.238141271375713,0.48097172026050644
4.240141338044602,1.290407017523266
4.24214140471349,0.9430923435723847
4.244141471382379,0.5887812466208353
4.246141538051268,0.6421872004366402
4.248141604720157,0.6021527727867348
4.250141671389046,1.0491680931395553
4.252141738057935,0.9915465984294447
4.2541418047268245,1.0875852816833564
4.256141871395713,1.3076364244734875
4.258141938064602,0.7748035085114754
4.260142004733491,1.5366941000070367
4.26214207140238,0.936227903006797
4.264142138071269,1.198629226700517
4.266142204740158,1.1102058172132123
4.2681422714090465,1.3440845963201058
4.270142338077935,1.0014318683651464
4.272142404746825,1.0727976521752474
4.274142471415714,0.9867684176921913
4.276142538084603,1.1905236058519753
4.278142604753492,1.0389414313155114
4.2801426714223805,1.3504227712997936
4.282142738091269,1.032164519435034
4.284142804760158,1.286623564958202
4.286142871429047,1.0434269577643565
4.288142938097937,1.1727480194503923
4.290143004766826,1.1163196777460505
4.2921430714357145,1.2708488521608385
4.294143138104603,0.9014339476900699
4.296143204773492,1.0438841838243065
4.298143271442381,1.4269276768110928
4.30014333811127,1.43752333158126
4.302143404780159,1.2104094829424563
4.3041434714490485,1.1858268546097304
4.306143538117937,1.275460091712167
4.308143604786826,1.3375524527370661
4.310143671455715,1.6093278694666089
4.312143738124604,1.45543036538986
4.314143804793493,1.4222408578640562
4.316143871462382,1.4342841485001896
4.3181439381312705,1.2369456393714315
4.32014400480016,1.3482107477789045
4.322144071469049,1.1976144689037542
4.324144138137938,1.5506786291547343
4.326144204806827,1.2680928729646186
4.328144271475716,1.4352301740441236
4.3301443381446045,1.4670731438143558
4.332144404813493,1.3695088182152406
4.334144471482382,1.5556423403754414
4.336144538151271,1.559693446886065
4.338144604820161,1.4489942615588116
4.34014467148905,1.8417098424051475
4.3421447381579386,1.2770728502176667
4.344144804826827,1.6030520935023018
4.346144871495716,1.3924071620359404
4.348144938164605,1.303011001048956
4.350145004833494,1.3856902090380907
4.352145071502383,1.822385485540543
4.354145138171273,1.9364153053112987
4.356145204840161,1.4889423857293151
4.35814527150905,1.4565469047870934
4.360145338177939,1.349172953602673
4.362145404846828,1.4394950595846419
4.364145471515717,1.3264674791267783
4.366145538184606,1.09700367606645
4.368145604853495,1.3630481855963095
4.370145671522384,1.3445942247706295
4.372145738191273,1.5425840755637166
4.374145804860162,1.5381004545769583
4.376145871529051,1.3762812107847178
4.37814593819794,1.5532040458501257
4.380146004866829,1.4180174690662164
4.3821460715357174,1.6472992381632268
4.384146138204606,1.2824851122643375
4.386146204873495,1.7050709526315841
4.388146271542385,1.6537394786854167
4.390146338211274,1.4928766722278897
4.392146404880163,1.283870219048606
4.3941464715490515,1.593135401440795
4.39614653821794,1.6036637345002864
4.398146604886829,1.3370826439726542
4.400146671555718,1.1690162323747515
4.402146738224607,1.5491534982117536
4.404146804893497,1.5067839013819866
4.4061468715623855,1.6056983369793154
4.408146938231274,1.5973585603073905
4.410147004900163,1.5920242519167767
4.412147071569052,1.3377354624856574
4.414147138237941,1.5087292339338425
4.41614720490683,1.4059856476508807
4.418147271575719,1.486465255098535
4.420147338244608,1.1406773304964755
4.422147404913497,1.6904288601316293
4.424147471582386,1.4524375889944856
4.426147538251275,1.8227361356421856
4.428147604920164,1.5843573871007028
4.430147671589053,1.2337168584285014
4.4321477382579415,1.3919024504786406
4.43414780492683,1.1431250357185383
4.43614787159572,1.2643163440136247
4.438147938264609,1.407717103195986
4.440148004933498,1.4641328361232082
4.442148071602387,1.5206159729346012
4.4441481382712755,1.204479319300239
4.446148204940164,1.151709623433395
4.448148271609053,1.367397695744784
4.450148338277942,1.257334586127819
4.452148404946831,1.502335727556626
4.454148471615721,1.3603374462089337
4.4561485382846096,0.8505104812213855
4.458148604953498,1.1987811287736527
4.460148671622387,0.9132247523316165
4.462148738291276,1.2174550148416212
4.464148804960165,1.0157568115955444
4.466148871629054,0.876457021437804
4.468148938297943,1.1563800507693078
4.470149004966832,0.756532522071989
4.472149071635721,0.8956534953416186
4.47414913830461,1.1692790914342073
4.476149204973499,1.233048877549375
4.478149271642388,0.9425554828504741
4.480149338311277,1.1191660986871919
4.482149404980166,1.1520262590899486
4.484149471649054,1.0681068218304293
4.486149538317944,1.1869464907888223
4.488149604986833,0.9775229250992116
4.490149671655722,0.6905164349652562
4.492149738324611,1.1338240416485674
4.4941498049935,0.8174813667366069
4.496149871662388,0.9465801807723224
4.498149938331277,0.9343120414948642
4.500150005000166,0.5519196135833757
4.502150071669055,0.9543804380469976
4.504150138337945,0.6578244687756729
4.506150205006834,0.8802861724903072
4.5081502716757225,0.8348919939074632
4.510150338344611,1.0501357002111893
4.5121504050135,0.6704430673788015
4.514150471682389,0.5500957409483059
4.516150538351278,0.89915749366041
4.518150605020167,0.4400856106275753
4.5201506716890565,0.7034461668695644
4.522150738357945,0.48044036746893587
4.524150805026834,0.3956911122551713
4.526150871695723,0.6284943792754563
4.528150938364612,0.7677681011538462
4.530151005033501,0.3210008034106459
4.53215107170239,0.47042098850859243
4.5341511383712785,0.5144665548334506
4.536151205040168,1.1898624196646983
4.538151271709057,0.35546914957126513
4.540151338377946,0.29610130277964486
4.542151405046835,0.6440912848618265
4.544151471715724,0.3055704653511525
4.5461515383846125,0.2781815646904777
4.548151605053501,0.42575333693607015
4.55015167172239,0.5432784634460788
4.552151738391279,0.5738167398149602
4.554151805060169,0.33802644653361064
4.556151871729058,0.1807242837080416
4.5581519383979465,0.6732215136568326
4.560152005066835,0.04385515649848512
4.562152071735724,0.3557220272098386
4.564152138404613,-0.1011988728210225
4.566152205073502,0.4928454380940076
4.568152271742391,-0.061079788681545344
4.5701523384112805,0.35795655162642154
4.572152405080169,0.2815773735801621
4.574152471749058,-0.09973534661341812
4.576152538417947,0.18780061237611584
4.578152605086836,0.29041984308099217
4.580152671755725,0.26435210464456466
4.582152738424614,-0.11280962434373647
4.5841528050935025,-0.01672827496791439
4.586152871762392,-0.26213566638222713
4.588152938431281,0.04747765367070454
4.59015300510017,0.07455176217258298
4.592153071769059,-0.20322782035646242
4.594153138437948,-0.2657325349628814
4.596153205106837,-0.2396226206966467
4.598153271775725,-0.1551155132423897
4.600153338444614,-0.2558671978137732
4.602153405113504,-0.37617285721490035
4.604153471782393,-0.21970710848655894
4.606153538451282,-0.14421417815394083
4.608153605120171,-0.4849878631248676
4.610153671789059,-0.42414738719971634
4.612153738457948,-0.3556186553121049
4.614153805126837,-0.49486725093886585
4.616153871795726,-0.4507722571393432
4.618153938464615,-0.5059366078873179
4.620154005133505,-0.33589754505193165
4.6221540718023935,-0.45605347631217086
4.624154138471282,-0.7528956380043501
4.626154205140171,-0.3902893698602191
4.62815427180906,-0.4264553802399564
4.630154338477949,-0.4282796203391237
4.632154405146838,-0.23135191639747937
4.634154471815727,-0.5250322473433537
4.636154538484616,-0.31034804936282073
4.638154605153505,-0.8179695152634003
4.640154671822394,-0.6416868672502729
4.642154738491283,-0.9965491940282319
4.644154805160172,-0.8268094934906763
4.646154871829061,-0.44170857998329327
4.6481549384979495,-0.8546924491462385
4.650155005166838,-0.8168909181658368
4.652155071835728,-0.6380210663613524
4.654155138504617,-0.6259378174312122
4.656155205173506,-0.7101322428374576
4.658155271842395,-0.5770246001682233
4.6601553385112835,-0.43948069805558065
4.662155405180172,-1.1244727729829103
4.664155471849061,-0.7735810253824924
4.66615553851795,-1.069628275033678
4.668155605186839,-0.6758986348273931
4.670155671855729,-0.7779431308662288
4.6721557385246175,-0.6920476315853976
4.674155805193506,-0.8607069784525896
4.676155871862395,-1.2072684382734655
4.678155938531284,-0.6937762887423
4.680156005200173,-0.8404965453636111
4.682156071869062,-1.5134575564686292
4.684156138537951,-0.9664453978258386
4.68615620520684,-1.1870475668194378
4.688156271875729,-1.3435990182543591
4.690156338544618,-1.2987279558795723
4.692156405213507,-1.0571971213174478
4.694156471882396,-0.9736430254946566
4.696156538551285,-1.0911979228423807
4.6981566052201735,-1.2933599974252719
4.700156671889062,-1.4425355841723035
4.702156738557952,-1.5816896478767684
4.704156805226841,-0.9687357938060955
4.70615687189573,-1.130568788359933
4.708156938564619,-1.2761841323524432
4.7101570052335076,-1.1838253388324151
4.712157071902396,-1.3530052821908833
4.714157138571285,-1.205794072091784
4.716157205240174,-1.262586095218613
4.718157271909064,-1.1762613799111281
4.720157338577953,-1.0344410620590039
4.722157405246842,-1.3030457347809639
4.72415747191573,-1.1510258926555688
4.726157538584619,-1.173125638644241
4.728157605253508,-1.5551685281798155
4.730157671922397,-1.4459991527798743
4.732157738591286,-1.3832984159846005
4.734157805260175,-1.1997798615861628
4.7361578719290645,-1.3610035497843296
4.738157938597953,-1.5051368563751768
4.740158005266842,-1.548228458292861
4.742158071935731,-1.3542573490788652
4.74415813860462,-1.1472839661382677
4.746158205273509,-1.442225033154025
4.748158271942398,-1.770865722609561
4.7501583386112864,-1.4787970889827398
4.752158405280176,-1.385659072921786
4.754158471949065,-1.6348189688855037
4.756158538617954,-1.3757816839146833
4.758158605286843,-1.1746342922818935
4.760158671955732,-1.6377842461249161
4.7621587386246205,-1.3257394877594002
4.764158805293509,-1.5196624842321158
4.766158871962398,-1.430666819381602
4.768158938631288,-1.8701983849905395
4.770159005300177,-1.468163605337785
4.772159071969066,-1.581913727626053
4.7741591386379545,-1.43559363205512
4.776159205306843,-1.8414973046959353
4.778159271975732,-1.7412793833273987
4.780159338644621,-1.6045037579500412
4.78215940531351,-1.4835172712151599
4.784159471982399,-1.9276131490678814
4.7861595386512885,-1.4131516017530528
4.788159605320177,-1.4931590857911266
4.790159671989066,-2.1256946552392426
4.792159738657955,-1.642891231779761
4.794159805326844,-1.295952191353757
4.796159871995733,-1.714509893684287
4.798159938664622,-1.406650370378739
4.8001600053335105,-1.265556293316336
4.8021600720024,-1.5026025012515571
4.804160138671289,-1.6885215779188165
4.806160205340178,-1.3653475322488136
4.808160272009067,-1.4802393807546448
4.810160338677956,-1.56193005081658
4.8121604053468445,-1.604233915692641
4.814160472015733,-1.8365458532018002
4.816160538684622,-1.5512154543976626
4.818160605353512,-1.3013021095458104
4.820160672022401,-1.4252289650764787
4.82216073869129,-1.6098139741952575
4.8241608053601785,-1.6807929562942552
4.826160872029067,-1.6420894197306939
4.828160938697956,-1.3529688113436702
4.830161005366845,-1.8492849101662219
4.832161072035734,-1.3559238030478196
4.834161138704624,-1.636494501007726
4.836161205373513,-1.4776358031256718
4.838161272042401,-1.4112159256515675
4.84016133871129,-1.5819285330857111
4.842161405380179,-1.103038548242634
4.844161472049068,-1.2752977531845087
4.846161538717957,-1.431881549253487
4.848161605386846,-1.3930952350903678
4.850161672055735,-1.425421532220657
4.852161738724624,-1.415737494690746
4.854161805393513,-1.300511566343524
4.856161872062402,-0.7074477482327821
4.858161938731291,-1.34384200751687
4.86016200540018,-1.487655265524503
4.862162072069069,-1.4319021497940192
4.864162138737957,-1.048667082552463
4.866162205406846,-1.2599353483321638
4.868162272075736,-1.7376701313728804
4.870162338744625,-1.1498175473847028
4.872162405413514,-0.8708913035120138
4.874162472082403,-1.0686492632299325
4.8761625387512915,-1.1282136120535267
4.87816260542018,-1.2835623571586685
4.880162672089069,-0.9846291199419159
4.882162738757958,-1.0493067907290932
4.884162805426848,-1.1919060342689007
4.886162872095737,-0.9721658213030347
4.8881629387646255,-1.2089334959303237
4.890163005433514,-0.9361707395494275
4.892163072102403,-0.9625283290444514
4.894163138771292,-1.045387147598524
4.896163205440181,-1.0757818513958055
4.89816327210907,-1.0854203307748018
4.900163338777959,-0.7742318138942634
4.902163405446848,-0.8381898342886043
4.904163472115737,-1.355811398883971
4.906163538784626,-1.005613253241923
4.908163605453515,-0.9614442498450894
4.910163672122404,-1.179115110745991
4.912163738791293,-0.8314779574253417
4.9141638054601815,-0.848896160150336
4.91616387212907,-0.9373949097157253
4.91816393879796,-1.116939635743321
4.920164005466849,-0.9102735577110219
4.922164072135738,-0.7900353581798583
4.924164138804627,-1.2344168813759335
4.9261642054735155,-0.9517561178325974
4.928164272142404,-0.9833730889887384
4.930164338811293,-0.8563263445917572
4.932164405480182,-0.8774118716907594
4.934164472149072,-0.9293625092410482
4.936164538817961,-0.6212884868952376
4.9381646054868495,-1.1058200503056175
4.940164672155738,-0.5811907664491092
4.942164738824627,-0.6143472589219261
4.944164805493516,-0.7773242141607378
4.946164872162405,-0.9036937563704311
4.948164938831294,-0.41754181412838576
4.950165005500183,-0.4551243583850987
4.952165072169072,-0.7100742779823632
4.954165138837961,-0.4025335042371363
4.95616520550685,-0.21005575914098684
4.958165272175739,-0.4134046327491727
4.960165338844628,-0.18999358539624028
4.962165405513517,-0.3913544815919753
4.964165472182406,-0.562763905447667
4.966165538851294,-0.1119297111432313
4.968165605520184,-0.4099999306607773
4.970165672189073,-0.46537687592152166
4.972165738857962,-0.41742647338108047
4.974165805526851,-0.28387558097332655
4.97616587219574,-0.1106076505536907
4.978165938864628,-0.4170436953739223
4.980166005533517,-0.03921496055381937
4.982166072202406,0.009466273637427303
4.984166138871296,-0.09548465704188903
4.986166205540185,-0.29203985923495346
4.988166272209074,0.07646133245849995
4.9901663388779625,-0.13340265370388332
4.992166405546851,-0.0344630896378213
4.99416647221574,0.0356566305762856
4.996166538884629,-0.2067912017736489
4.998166605553518,-0.2421201081091512
5.000166672222408,0.49667782480754946
5.0021667388912965,-0.07123916257421192
5.004166805560185,-0.0744614705701708
5.006166872229074,-0.08173265522634393
5.008166938897963,0.1632684272033208
5.010167005566852,0.11868971358320551
5.012167072235741,0.15792223143907
5.01416713890463,0.012293112646165394
5.0161672055735185,0.18221224931504598
5.018167272242408,0.23237872227048023
5.020167338911297,0.4329492996349334
5.022167405580186,-0.005384546917943822
5.024167472249075,-0.020801714494779855
5.026167538917964,0.003643861463015041
5.0281676055868525,0.6557609466752263
5.030167672255741,0.19400110730779174
5.03216773892463,0.4833553374193931
5.03416780559352,0.463732826431628
5.036167872262409,0.4189157527926725
5.038167938931298,0.3441463260624628
5.0401680056001865,0.2462411132757809
5.042168072269075,0.24727485896934664
5.044168138937964,0.760443382559301
5.046168205606853,0.3836775419023568
5.048168272275742,0.4101578130601601
5.050168338944632,0.399442971016178
5.0521684056135205,0.5650338791960314
5.054168472282409,0.4114882839243507
5.056168538951298,0.8151126951817821
5.058168605620187,0.4538678043439992
5.060168672289076,0.43744330708869483
5.062168738957965,0.5334685646845306
5.064168805626854,0.2104837280794556
5.0661688722957425,0.8520018325409384
5.068168938964632,0.7541244272618797
5.070169005633521,0.5050125609140464
5.07216907230241,0.9127054224563875
5.074169138971299,1.1765811768403458
5.076169205640188,0.7308057944028832
5.0781692723090766,1.1174161844350405
5.080169338977965,0.6327829416327628
5.082169405646854,1.1430487712088693
5.084169472315744,0.9903097796016276
5.086169538984633,0.8071718251279563
5.088169605653522,0.8566256958980729
5.090169672322411,1.122610793080953
5.092169738991299,1.117671572059976
5.094169805660188,1.0389875732277447
5.096169872329077,0.8356917356376703
5.098169938997966,0.6176352937875483
5.100170005666856,0.7911010143185907
5.102170072335745,1.060882013597094
5.1041701390046335,0.885257129570704
5.106170205673522,1.0867466955079523
5.108170272342411,0.76027242440851
5.1101703390113,0.9858582369595038
5.112170405680189,1.5584925653446295
5.114170472349078,1.3025028176226185
5.1161705390179675,1.4863982105383329
5.118170605686856,1.4487527495701493
5.120170672355745,1.2761483363765946
5.122170739024634,1.017776870836206
5.124170805693523,1.2086012237937025
5.126170872362412,1.229765700498828
5.128170939031301,1.2749479973597029
5.1301710057001895,1.3588227251406466
5.132171072369078,1.2663469249259178
5.134171139037968,1.3177796721642325
5.136171205706857,1.0693883310087977
5.138171272375746,1.1815058266839111
5.140171339044635,1.4644481306764483
5.1421714057135235,1.4966585816530125
5.144171472382412,1.2360311045498318
5.146171539051301,1.1737602430161154
5.14817160572019,1.2602758390677393
5.15017167238908,1.4497957310486684
5.152171739057969,1.0366791685152548
5.1541718057268575,1.4410087927210515
5.156171872395746,1.231497855958052
5.158171939064635,1.5326870392768888
5.160172005733524,1.2988946719925305
5.162172072402413,1.5013280871464652
5.164172139071302,1.1682737000581644
5.1661722057401915,1.338241943300644
5.16817227240908,1.219583473041888
5.170172339077969,1.3722331335971987
5.172172405746858,1.5179408709855917
5.174172472415747,1.3682374801992931
5.176172539084636,1.6896131948390125
5.178172605753525,1.278692786789126
5.1801726724224135,1.4976036022901817
5.182172739091302,1.6446014863313083
5.184172805760192,1.6520989566768522
5.186172872429081,1.40919263432099
5.18817293909797,1.674634967487595
5.190173005766859,1.127697522723976
5.1921730724357475,1.5747195675395642
5.194173139104636,1.5336985187503398
5.196173205773525,1.617931529677201
5.198173272442414,1.5527436506826255
5.200173339111304,1.450255127454598
5.202173405780193,1.5874342244200483
5.204173472449082,1.1694708287635984
5.20617353911797,1.4911630118903811
5.208173605786859,1.2558568327383484
5.210173672455748,1.5251090936974954
5.212173739124637,1.3558129540562167
5.214173805793526,1.5301098167472462
5.216173872462416,1.4144420949495957
5.2181739391313045,1.382898109118827
5.220174005800193,1.5077895235816978
5.222174072469082,1.7313734264180232
5.224174139137971,1.399220035409253
5.22617420580686,1.4951467771197142
5.228174272475749,1.8118618373194086
5.230174339144638,1.603823511132826
5.232174405813527,1.3304642921610765
5.234174472482416,1.4798439274504982
5.236174539151305,1.6876546048852195
5.238174605820194,1.1097972538664658
5.240174672489083,1.6611205764920904
5.242174739157972,1.2490268361318306
5.2441748058268605,1.766223424420496
5.246174872495749,1.3162365110274379
5.248174939164638,1.6453107878867406
5.250175005833528,1.4845458395915574
5.252175072502417,1.5875951945764664
5.254175139171306,1.2860948436877429
5.2561752058401945,1.1512292882467048
5.258175272509083,1.721838177883964
5.260175339177972,1.2752393035401377
5.262175405846861,1.3002967593205543
5.26417547251575,1.2007537883449984
5.26617553918464,1.10296764020515
5.2681756058535285,1.2039376612861903
5.270175672522417,1.2482013807153922
5.272175739191306,1.4208009563202904
5.274175805860195,1.0244267436704868
5.276175872529084,1.2803848145503083
5.278175939197973,1.4226307711162578
5.280176005866862,1.2345215986094782
5.282176072535751,1.1591413654620575
5.28417613920464,1.2466376344194703
5.286176205873529,1.966435525132523
5.288176272542418,1.0575374284615402
5.290176339211307,1.1414611042071316
5.292176405880196,1.1870235816785426
5.2941764725490845,1.1006728896926274
5.296176539217973,1.1516605363577261
5.298176605886862,1.2239486214966666
5.300176672555752,1.1453911922675606
5.302176739224641,1.0210561996961787
5.30417680589353,1.049086236746838
5.3061768725624185,1.0290101380084062
5.308176939231307,1.0563724333747728
5.310177005900196,1.011807277729817
5.312177072569085,0.7651434652818975
5.314177139237974,1.4529497959629234
5.316177205906864,1.0553390946991217
5.318177272575753,1.2349988339877096
5.320177339244641,1.1246457205802574
5.32217740591353,1.1066938721023702
5.324177472582419,1.0695348932276039
5.326177539251308,0.9795606529367806
5.328177605920197,0.9708854106124432
5.330177672589086,1.0133420502014636
5.3321777392579754,0.8474718267604641
5.334177805926864,0.6356979689499426
5.336177872595753,1.2380065777859262
5.338177939264642,0.8570172935545487
5.340178005933531,0.9949196448732789
5.34217807260242,0.6378527064738251
5.344178139271309,0.7298820504272943
5.346178205940197,0.7866087195371928
5.348178272609086,0.9449950807731797
5.350178339277976,0.6990164368248494
5.352178405946865,1.0105511331415824
5.354178472615754,0.5512197612865195
5.356178539284643,0.573083194613309
5.3581786059535315,0.6793390733071494
5.36017867262242,0.21678942691796627
5.362178739291309,0.7076457323932939
5.364178805960198,0.6666703278703607
5.366178872629088,0.5486626455463691
5.368178939297977,0.5132750714531932
5.3701790059668655,0.1969329721126274
5.372179072635754,0.6061624966564082
5.374179139304643,0.6938440836056062
5.376179205973532,0.40862188781867437
5.378179272642421,0.238479975374527
5.38017933931131,0.5205924708184583
5.3821794059801995,0.34655773199960793
5.384179472649088,0.2229687386351728
5.386179539317977,0.5194707203747511
5.388179605986866,0.6193899272427295
5.390179672655755,0.40202421832803914
5.392179739324644,0.31467466655305143
5.394179805993533,0.11366536121410875
5.3961798726624215,0.5451958046764985
5.398179939331311,0.2936114806575791
5.4001800060002,0.040036104780043213
5.402180072669089,0.030322766814600027
5.404180139337978,0.08057215161282166
5.406180206006867,0.3748563087712167
5.4081802726757555,0.08416221282572557
5.410180339344644,0.030239670552423804
5.412180406013533,0.013641445896061859
5.414180472682422,0.47265055644934884
5.416180539351312,0.08572363127924196
5.418180606020201,-0.3061612874438581
5.4201806726890895,0.09736391502937183
5.422180739357978,-0.21894262918181223
5.424180806026867,-0.0870446693857597
5.426180872695756,-0.3989515556384085
5.428180939364645,0.05204097344403147
5.430181006033534,-0.28326421376151073
5.432181072702424,-0.08205359645987226
5.434181139371312,-0.00021181585694957095
5.436181206040201,-0.006097908429730209
5.43818127270909,0.04618905213633101
5.440181339377979,-0.1907178901910746
5.442181406046868,-0.13119434905298408
5.444181472715757,-0.5343103457054063
5.4461815393846456,-0.44246514705285755
5.448181606053535,-0.3745664736742015
5.450181672722424,-0.39096089735015327
5.452181739391313,-0.4176114632147101
5.454181806060202,0.16596429476056362
5.456181872729091,-0.057260246823016336
5.45818193939798,-0.5089302630382245
5.460182006066868,-0.38207375207827793
5.462182072735757,-0.5033585837539807
5.464182139404646,-0.48187063720848305
5.466182206073536,-0.7290876725952833
5.468182272742425,-0.7120531643709603
5.470182339411314,-0.46294833134948365
5.4721824060802025,-0.4437576772844757
5.474182472749091,-0.7702130096286086
5.47618253941798,-0.8994412206332723
5.478182606086869,-0.8785533850355566
5.480182672755758,-0.5988779313268329
5.482182739424648,-0.5639958152478979
5.4841828060935365,-0.8021125450026496
5.486182872762425,-0.7692227611786718
5.488182939431314,-0.6194423715859814
5.490183006100203,-0.9474209921703884
5.492183072769092,-0.9275651993027981
5.494183139437981,-0.6183860847779041
5.49618320610687,-0.6399439537926617
5.498183272775759,-0.8339089778573261
5.500183339444648,-0.6625981736491606
5.502183406113537,-1.3043972922736289
5.504183472782426,-0.680634319667706
5.506183539451315,-0.8698821607150264
5.508183606120204,-1.1873940916641228
5.5101836727890925,-0.857579442734747
5.512183739457981,-1.4720134270761127
5.514183806126871,-0.6626881197471228
5.51618387279576,-1.1236577610242695
5.518183939464649,-0.9470316048602669
5.520184006133538,-0.7250627168956192
5.5221840728024265,-0.9761606652947264
5.524184139471315,-1.095981716084624
5.526184206140204,-1.194721367157669
5.528184272809093,-0.9440335066336624
5.530184339477982,-1.4108884990837458
5.532184406146872,-1.0804352390821785
5.5341844728157605,-0.9228405477353261
5.536184539484649,-0.8914922929309271
5.538184606153538,-0.5773302326154782
5.540184672822427,-1.005356519646502
5.542184739491316,-1.1757286023048183
5.544184806160205,-1.17232457269243
5.546184872829094,-1.1787615348834573
5.548184939497983,-1.1380228358086346
5.550185006166872,-1.1980019332390761
5.552185072835761,-1.0517679799133983
5.55418513950465,-1.2924265049310846
5.556185206173539,-1.3201670118238726
5.558185272842428,-1.1345950295854954
5.5601853395113165,-1.363694490816498
5.562185406180205,-1.3671926742080527
5.564185472849095,-1.356354750445193
5.566185539517984,-1.0116792997847934
5.568185606186873,-1.3588690330481776
5.570185672855762,-1.1541511659612351
5.572185739524651,-1.0600487743526998
5.574185806193539,-1.4237054753761265
5.576185872862428,-1.3934049511577509
5.578185939531317,-1.1890053315696736
5.580186006200206,-1.105530039254304
5.582186072869096,-1.1752124668179005
5.584186139537985,-1.4954573042625074
5.5861862062068735,-1.6115082582640397
5.588186272875762,-1.1610360094561665
5.590186339544651,-1.2931200321621934
5.59218640621354,-1.554781485373553
5.594186472882429,-1.5565803959581597
5.596186539551318,-1.568344118371786
5.5981866062202075,-1.2822893194719442
5.600186672889096,-1.819806670918323
5.602186739557985,-1.3953450265463496
5.604186806226874,-1.4065770650156952
5.606186872895763,-1.6021002261586474
5.608186939564652,-1.4339871465758252
5.610187006233541,-1.2372870702617638
5.6121870729024295,-1.6177472950031144
5.614187139571319,-1.3951917177212834
5.616187206240208,-1.6025708894780224
5.618187272909097,-1.7914291630401227
5.620187339577986,-1.4639164647119773
5.622187406246875,-1.6105462715803385
5.6241874729157635,-1.3006906934821083
5.626187539584652,-1.740967703176083
5.628187606253541,-1.3538770123160155
5.630187672922431,-1.344232541896013
5.63218773959132,-1.2757432251925058
5.634187806260209,-1.6065590970966759
5.6361878729290975,-1.4840004773531956
5.638187939597986,-1.505248881052469
5.640188006266875,-1.3311364835287058
5.642188072935764,-1.2957374149882255
5.644188139604653,-1.3974959219196852
5.646188206273542,-1.235808206740952
5.6481882729424315,-1.6977472754145402
5.65018833961132,-1.3993571384960182
5.652188406280209,-1.6479308783946416
5.654188472949098,-1.184564599831001
5.656188539617987,-1.6793087177142305
5.658188606286876,-1.619197715310795
5.660188672955765,-1.6080718064130346
5.6621887396246535,-1.3560024068652965
5.664188806293543,-1.4358444310254872
5.666188872962432,-1.576937504734901
5.668188939631321,-1.3962610186037172
5.67018900630021,-1.3292266103383101
5.672189072969099,-1.7472044621693987
5.6741891396379875,-1.5029126848814733
5.676189206306876,-1.539312960784243
5.678189272975765,-1.4887637953879134
5.680189339644655,-1.5376400631447658
5.682189406313544,-1.7109073297535196
5.684189472982433,-1.6608601355834434
5.686189539651322,-1.220145388551859
5.68818960632021,-0.9731781850711334
5.690189672989099,-1.4552141976594324
5.692189739657988,-1.23285012584758
5.694189806326877,-1.2722600047045771
5.696189872995766,-1.4683811785574425
5.698189939664656,-1.2139831545162525
5.7001900063335444,-1.4695530136046755
5.702190073002433,-1.4214558374784563
5.704190139671322,-1.0424401536507095
5.706190206340211,-0.8984421184762097
5.7081902730091,-1.3837547768674
5.710190339677989,-1.0727120576870592
5.712190406346878,-1.1395032404550869
5.714190473015767,-1.254245157177902
5.716190539684656,-1.1111290784037144
5.718190606353545,-0.8708787271383465
5.720190673022434,-1.2623433679685894
5.722190739691323,-0.9172128697046491
5.724190806360212,-0.9289520962987321
5.7261908730291005,-1.1800600320031522
5.728190939697989,-1.0982287387781757
5.730191006366879,-1.2130979065449412
5.732191073035768,-0.6607044755964315
5.734191139704657,-1.0861540993360588
5.736191206373546,-0.5884324036597133
5.7381912730424345,-0.7598997022418412
5.740191339711323,-0.842128998465408
5.742191406380212,-1.0035893470018071
5.744191473049101,-0.9944194868090774
5.74619153971799,-0.740235558660099
5.74819160638688,-0.631697904868521
5.7501916730557685,-0.9493708835873059
5.752191739724657,-0.6461472410231559
5.754191806393546,-1.1991388904478475
5.756191873062435,-0.8093659001676177
5.758191939731324,-0.8648752627809257
5.760192006400213,-0.6270009237624298
5.762192073069102,-0.6203108542601612
5.764192139737991,-0.4711171585394876
5.76619220640688,-0.7288813182278068
5.768192273075769,-0.5372374643227624
5.770192339744658,-0.5941262544418854
5.772192406413547,-0.3831131809316064
5.774192473082436,-0.3933469523737996
5.7761925397513245,-0.9563043389163349
5.778192606420213,-0.814278302226932
5.780192673089103,-0.838657131105562
5.782192739757992,-0.7397095494946414
5.784192806426881,-0.6835103732105857
5.78619287309577,-0.6482843115334215
5.7881929397646585,-0.6347536816149447
5.790193006433547,-0.4002736415981999
5.792193073102436,-0.4582006246536449
5.794193139771325,-0.5464507933567708
5.796193206440215,-0.5946443550847904
5.798193273109104,-0.3750136847810743
5.800193339777993,-0.5531800547094987
5.802193406446881,-0.6279197026764634
5.80419347311577,-0.09621695718151496
5.806193539784659,-0.421364270934562
5.808193606453548,0.1356495477013564
5.810193673122437,-0.03570728015216021
5.812193739791326,0.24649219489964286
5.814193806460215,0.18212328601018754
5.816193873129104,-0.2609670414592765
5.818193939797993,0.14462235354913938
5.820194006466882,0.17616325699613056
5.822194073135771,-0.35731898638402826
5.82419413980466,-0.031879358169186287
5.826194206473549,-0.22958550866726796
5.828194273142437,-0.2726163309813935
5.830194339811327,-0.12291844346631349
5.832194406480216,-0.1026133402521515
5.834194473149105,0.1839921260020482
5.836194539817994,0.26444691320435426
5.838194606486883,-0.14091479996087763
5.8401946731557715,0.029411927850678213
5.84219473982466,-0.07518487191919285
5.844194806493549,0.03680092128088844
5.846194873162439,-0.15393553704784424
5.848194939831328,-0.34419072832934067
5.850195006500217,0.2501060343008687
5.8521950731691055,0.22146463516643047
5.854195139837994,0.11473474257774371
5.856195206506883,0.2924664524072492
5.858195273175772,0.24408276054602437
5.860195339844661,0.49359997962020374
5.86219540651355,0.4097882419577992
5.8641954731824395,0.4006857419088993
5.866195539851328,0.4810441444809747
5.868195606520217,0.46947120965183675
5.870195673189106,0.45712697863179924
5.872195739857995,0.46296336138383665
5.874195806526884,0.39793886049277005
5.876195873195773,0.6773443086106702
5.8781959398646615,0.6734187733637523
5.880196006533551,0.15946963935687225
5.88219607320244,0.39910372318283505
5.884196139871329,0.6400667845572261
5.886196206540218,0.46208911719075607
5.888196273209107,0.348522196729809
5.8901963398779955,1.0670020587039546
5.892196406546884,0.6567984198150595
5.894196473215773,0.8057524240767664
5.896196539884663,0.5777454066082006
5.898196606553552,0.8380066154035315
5.900196673222441,0.7713606721462354
5.9021967398913295,0.6953021013054022
5.904196806560218,0.5503018688455218
5.906196873229107,0.7440099607753415
5.908196939897996,0.633175204743553
5.910197006566885,0.5897147627446324
5.912197073235775,0.9892121796362943
5.914197139904664,0.9089473288458508
5.916197206573552,1.0107112414381034
5.918197273242441,0.8326062800875791
5.92019733991133,1.4679360572020232
5.922197406580219,0.8488346279951291
5.924197473249108,1.1153733162766089
5.926197539917997,1.085982422949222
5.9281976065868855,0.8949175634466179
5.930197673255775,0.9487431619040521
5.932197739924664,1.2446046729111768
5.934197806593553,0.7614458114897076
5.936197873262442,1.0746503037298023
5.938197939931331,0.8500610564748052
5.94019800660022,1.2846345535769457
5.942198073269108,1.086226669009555
5.944198139937997,1.2136504770345984
5.946198206606887,0.8514830750529021
5.948198273275776,1.259480870998284
5.950198339944665,1.433419163366772
5.952198406613554,1.4059981047726824
5.9541984732824424,1.337316963078011
5.956198539951331,1.064492485822089
5.95819860662022,1.5252689654991696
5.960198673289109,1.3311657337574159
5.962198739957999,1.1738751146742548
5.964198806626888,1.0690477420521174
5.9661988732957765,1.1647054871718574
5.968198939964665,1.2029237248058358
5.970199006633554,1.341607852412197
5.972199073302443,1.412650898587691
5.974199139971332,1.3003519256898264
5.976199206640221,1.2499779401176683
5.97819927330911,1.2634138048111774
5.980199339977999,1.2629446365351367
5.982199406646888,1.5787143021899606
5.984199473315777,1.2655254518705068
5.986199539984666,1.1711549740152103
5.988199606653555,1.555187106809061
5.990199673322444,1.7350021992407179
5.9921997399913325,1.1856657491887426
5.994199806660221,1.1805958420944442
5.996199873329111,1.2769919757040984
5.998199939998,1.768454487657598
6.000200006666889,1.6671177890780133
6.002200073335778,1.0428697597431051
6.0042001400046665,1.6819337473943556
6.006200206673555,1.1615498949835825
6.008200273342444,1.3535484069869743
6.010200340011333,1.2817477131037491
6.012200406680223,1.1263890895388564
6.014200473349112,1.5457205733033503
6.0162005400180005,1.3880924117646032
6.018200606686889,1.3928024618973922
6.020200673355778,1.8706373932134555
6.022200740024667,1.535570729965728
6.024200806693556,1.457397633696147
6.026200873362445,1.5849516069824539
6.0282009400313346,1.0835895152868251
6.030201006700223,1.456392155495704
6.032201073369112,1.425351299412841
6.034201140038001,1.3898286971551177
6.03620120670689,1.2961999703004035
6.038201273375779,1.552897989597652
6.040201340044668,1.3365836011547112
6.0422014067135565,1.5207591152422506
6.044201473382445,1.3066938281985456
6.046201540051335,1.350019998112297
6.048201606720224,1.5675463497253606
6.050201673389113,1.6949218852379948
6.052201740058002,1.2844676640984187
6.054201806726891,1.5830958007726428
6.056201873395779,1.281026402222443
6.058201940064668,1.7626310906368612
6.060202006733557,1.602037801397409
6.062202073402447,1.3806665220620213
6.064202140071336,1.2858319806630853
6.066202206740225,1.4562059404652874
6.0682022734091134,1.4608204700731555
6.070202340078002,1.419577679303218
6.072202406746891,1.3043041691096589
6.07420247341578,1.4466000229275904
6.076202540084669,1.1938652084084522
6.078202606753559,1.4192593892927654
6.0802026734224475,1.3388343964233342
6.082202740091336,1.0564677905154212
6.084202806760225,1.1492137759281351
6.086202873429114,1.5838198688029288
6.088202940098003,1.5424977369750006
6.090203006766892,1.9325669680480073
6.092203073435781,1.520455235600197
6.0942031401046695,1.3103943773484588
6.096203206773559,1.609368214274019
6.098203273442448,1.313049561455227
6.100203340111337,1.3371689983853696
6.102203406780226,1.518405814023654
6.104203473449115,1.1569904463540697
6.1062035401180035,1.2355576591731823
6.108203606786892,1.3902353860576846
6.110203673455781,1.2674141745951477
6.112203740124671,1.1425950706262573
6.11420380679356,1.3279996895156512
6.116203873462449,1.4995269542926493
6.1182039401313375,1.2810130472447125
6.120204006800226,1.7116036276021238
6.122204073469115,0.8208788746514604
6.124204140138004,1.1117611773520795
6.126204206806893,1.211331954465895
6.128204273475783,1.2541828404632887
6.1302043401446715,0.7993522706791254
6.13220440681356,1.753543282683348
6.134204473482449,1.3469630667774057
6.136204540151338,1.0744621073904486
6.138204606820227,1.2142530798293114
6.140204673489116,0.9625767119164019
6.142204740158005,1.4441579885181133
6.1442048068268935,1.1926284293519551
6.146204873495783,0.8918113456013091
6.148204940164672,1.3126332055622496
6.150205006833561,0.9154897245592969
6.15220507350245,1.1295198178314427
6.154205140171339,0.8867767577929311
6.1562052068402275,0.49828297061586435
6.158205273509116,0.982106769109346
6.160205340178005,0.7287541782823885
6.162205406846895,0.812135336388793
6.164205473515784,0.6921094842534243
6.166205540184673,1.275325633287382
6.168205606853562,0.993235442116926
6.17020567352245,0.8790249320487372
6.172205740191339,0.8238167425449295
6.174205806860228,0.4939254812440214
6.176205873529117,0.4536498375507245
6.178205940198007,0.5795997743307507
6.180206006866896,0.9876964013159065
6.182206073535784,0.6739439236687887
6.184206140204673,0.7471618631768058
6.186206206873562,0.7839615025316276
6.188206273542451,0.722553762769555
6.19020634021134,0.7163419285416167
6.192206406880229,0.2950674776660294
6.1942064735491185,0.40546930180620466
6.196206540218007,0.6537755036430974
6.198206606886896,0.4522136217997319
6.200206673555785,0.5296751820543438
6.202206740224674,0.4095162024106314
6.204206806893563,0.8293057938874442
6.206206873562452,0.3796989619014336
6.2082069402313405,0.4453938862422645
6.210207006900229,0.6287665753668048
6.212207073569119,0.580382597237355
6.214207140238008,0.39486224355603355
6.216207206906897,0.30346577984415574
6.218207273575786,0.46826200766326886
6.2202073402446745,0.3449402418639945
6.222207406913563,0.09030739993706197
6.224207473582452,0.5264277937726181
6.226207540251341,0.23164827405816918
6.228207606920231,0.28047457848190666
6.23020767358912,0.06686665175504228
6.2322077402580085,0.005850789357978503
6.234207806926897,0.7388537638158232
6.236207873595786,-0.2545464012091939
6.238207940264675,0.0694461295623494
6.240208006933564,0.45358911476224595
6.242208073602453,0.20932678543810168
6.2442081402713425,0.06764153601141212
6.246208206940231,-0.21872587137727936
6.24820827360912,-0.06841068010883475
6.250208340278009,0.20406450129238154
6.252208406946898,0.20015024004865886
6.254208473615787,0.2217134336341959
6.256208540284676,0.05102245855312931
6.2582086069535645,-0.24392823029696892
6.260208673622453,-0.2693978149047215
6.262208740291343,-0.06864761390548235
6.264208806960232,-0.16574419415479796
6.266208873629121,-0.3873752791296146
6.26820894029801,-0.38133225817163996
6.2702090069668985,-0.29437836859629907
6.272209073635787,-0.45487443729985827
6.274209140304676,-0.2648811052806802
6.276209206973565,-0.49231243241679
6.278209273642455,-0.3009953133395868
6.280209340311344,-0.3622630286777576
6.282209406980233,-0.25454343675928126
6.284209473649121,-0.33015504711194965
6.28620954031801,-0.16554948553932805
6.288209606986899,-0.44667903461280883
6.290209673655788,-0.683207241323945
6.292209740324677,-0.6122409754847367
6.294209806993567,-0.24381080401615338
6.296209873662455,-0.7470493613905911
6.298209940331344,-0.7013493406448769
6.300210007000233,-0.5956099929169058
6.302210073669122,-0.3527729146755074
6.304210140338011,-0.28709739196376793
6.3062102070069,-0.39954298113722764
6.308210273675789,-0.6631152123255241
6.310210340344678,-0.9119880411469052
6.312210407013567,-0.5672639531915785
6.314210473682456,-0.7347961928152867
6.316210540351345,-1.1525217074808072
6.318210607020234,-0.8738843687840065
6.320210673689123,-0.7838853665647696
6.3222107403580114,-0.9380738148826542
